#!,Workbook:,Custom,Custom
#!,To play this data back: Open the original Excel workbook file then click the *Import Data File* button in the *Data Streamer* ribbon and navigate to this file.
#!,For more information visit http://aka.ms/hackingstem/
221
221
223
224
225
226
228
230
228
230
228
230
232
232
236
237
233
235
237
236
237
237
238
239
242
241
237
239
241
243
249
251
252
257
261
261
264
270
277
280
279
276
275
267
257
253
254
257
259
259
259
256
255
246
234
227
242
297
373
443
472
422
336
280
254
240
241
246
257
262
259
258
259
261
261
262
265
267
268
266
270
272
275
279
282
282
281
288
292
292
296
302
305
308
312
318
320
323
325
331
335
327
320
312
302
295
288
282
275
268
265
267
265
262
262
263
265
265
266
268
268
269
271
275
274
271
273
275
276
275
274
275
280
283
284
284
279
277
276
276
277
276
275
275
281
288
286
285
290
292
290
293
298
299
301
302
298
290
281
280
280
278
279
280
282
282
279
278
272
265
271
305
366
434
472
444
367
318
294
281
285
293
304
308
306
306
308
311
316
320
322
325
332
333
337
346
363
363
363
360
343
345
351
350
352
356
363
369
368
373
378
382
384
381
381
386
380
371
370
360
352
344
338
335
335
331
327
327
324
325
326
326
328
330
329
327
328
330
331
330
331
335
336
336
334
338
340
336
332
331
332
333
334
332
330
331
332
328
325
325
330
331
326
324
326
333
333
334
332
325
314
307
308
306
304
304
306
305
303
298
298
291
286
294
332
388
441
459
422
354
311
290
277
283
292
302
307
308
306
301
302
302
300
301
300
302
304
305
303
304
305
307
310
310
312
312
314
316
318
325
328
331
333
337
338
335
334
336
334
326
320
313
302
295
289
283
276
275
277
271
267
268
270
269
267
267
268
267
265
267
272
271
272
270
269
271
273
274
273
271
276
274
270
275
281
279
274
273
280
281
278
281
284
287
281
282
285
293
297
306
305
296
283
272
272
276
282
285
287
277
277
286
283
268
273
309
361
404
432
409
342
292
268
271
275
279
294
303
301
296
294
301
303
292
294
300
299
306
308
306
308
312
314
320
325
330
331
331
327
340
336
340
351
359
356
343
351
358
359
357
378
423
458
470
474
474
484
493
481
482
486
488
481
484
483
483
481
481
474
470
481
477
477
468
459
469
470
465
460
462
464
456
450
455
456
449
454
461
447
433
433
459
464
455
440
431
433
445
447
444
431
430
423
412
413
417
409
402
389
399
391
394
392
386
386
412
467
499
515
487
424
379
363
358
364
368
373
376
377
375
374
375
376
376
373
371
377
381
379
377
376
373
375
380
383
381
384
391
396
386
389
389
398
400
400
396
396
394
399
390
386
377
367
355
342
337
332
325
317
314
313
304
307
307
313
303
302
312
311
307
308
305
312
307
309
319
312
306
305
304
301
303
308
307
293
301
301
299
300
294
298
304
306
302
297
298
297
304
305
305
302
300
295
288
279
284
280
281
280
282
283
276
272
269
284
314
363
411
420
380
315
278
261
257
261
267
276
278
276
278
287
281
276
280
279
282
283
285
282
283
288
292
289
292
294
299
299
303
305
307
312
312
316
321
330
330
330
335
335
333
331
325
314
308
301
299
297
289
278
281
283
281
277
280
276
278
285
285
281
278
283
285
287
288
290
292
292
283
291
295
291
290
293
294
292
292
296
295
292
296
297
304
304
303
310
316
319
323
327
322
318
315
310
309
308
308
310
311
315
310
305
301
300
310
350
412
470
484
438
370
328
305
298
303
312
322
325
323
325
324
329
326
324
324
327
331
329
330
330
332
340
344
340
339
341
346
349
350
350
353
356
362
365
367
370
371
369
364
360
358
355
346
337
326
318
312
306
301
297
295
292
289
290
294
290
292
291
294
296
294
292
295
297
296
294
296
299
294
291
292
292
293
293
295
291
290
287
284
286
289
293
295
291
292
297
299
300
300
296
290
277
271
270
273
274
273
271
266
266
264
255
247
254
300
370
437
463
423
343
287
263
255
257
262
268
269
267
267
268
266
268
269
270
269
271
274
276
278
280
281
284
289
290
293
295
303
305
307
313
319
320
324
330
330
336
336
336
335
332
328
320
311
304
299
291
286
281
276
272
273
271
270
271
271
273
274
271
272
273
274
273
276
274
274
276
280
278
276
276
279
279
278
280
280
279
279
281
282
284
286
285
286
289
297
300
298
297
293
285
277
272
273
274
275
274
271
270
268
262
254
256
291
362
438
486
465
385
320
286
277
274
280
291
298
303
302
300
304
309
308
310
315
318
320
325
326
328
328
331
335
336
336
342
345
343
347
354
357
358
361
365
367
368
369
368
366
361
355
346
334
325
316
305
299
290
283
280
276
273
270
267
266
260
257
254
252
251
248
245
243
243
242
239
237
234
230
227
225
222
221
223
223
223
222
222
223
225
228
227
226
228
235
240
239
235
230
223
215
212
212
212
215
215
213
209
208
201
191
194
231
302
379
430
412
327
259
220
201
202
209
221
222
220
219
221
223
226
230
229
231
238
243
247
250
252
255
261
266
269
273
280
283
287
291
298
306
310
313
317
322
326
329
330
331
327
321
315
308
301
294
287
282
279
279
277
275
276
276
276
277
279
282
284
283
285
288
290
292
294
294
294
294
298
298
298
300
304
304
304
308
312
312
313
319
323
323
326
331
334
338
340
340
338
331
326
325
326
328
329
330
331
329
330
324
314
315
344
400
468
524
519
443
377
341
324
325
338
354
362
360
361
364
368
368
370
372
375
379
380
381
384
386
386
388
391
391
393
397
401
403
404
406
409
410
411
412
414
416
415
415
415
410
405
396
387
377
368
363
358
353
347
348
344
342
342
341
342
341
341
341
341
339
339
340
343
344
341
341
341
340
340
339
339
339
338
338
336
336
337
336
336
338
338
338
336
339
342
344
345
339
330
319
314
313
313
312
314
313
311
307
303
293
283
294
340
407
469
492
442
365
317
293
285
288
296
304
303
300
300
303
304
301
302
302
302
304
305
308
310
310
312
313
313
314
317
320
322
323
324
327
328
330
333
335
339
341
342
340
337
332
327
320
310
300
292
287
283
277
273
273
270
267
266
269
268
267
268
270
271
271
270
269
269
270
269
268
269
268
268
269
271
269
269
271
272
272
272
274
277
280
280
280
281
287
290
290
286
281
271
261
259
263
265
265
264
263
261
255
247
241
254
304
377
444
470
425
347
297
271
260
262
267
271
274
272
271
272
273
274
274
277
281
282
284
285
288
291
292
295
299
300
300
303
308
311
314
318
321
323
326
329
333
334
336
338
336
330
324
317
310
302
293
285
282
279
277
275
273
273
275
276
274
275
276
277
278
279
280
281
282
284
285
282
281
281
283
283
284
285
286
285
285
285
286
288
291
293
294
296
298
302
308
311
313
311
309
299
291
288
286
286
287
286
288
288
281
271
264
268
308
377
451
498
472
387
324
290
276
275
279
287
291
288
285
284
288
289
291
292
293
295
297
298
301
303
305
306
308
312
317
321
322
325
328
330
333
339
340
342
344
347
351
352
350
346
342
335
327
316
307
300
295
291
285
281
281
282
280
281
282
284
284
286
287
289
290
290
291
292
292
293
293
293
293
294
293
292
293
293
294
294
294
294
295
297
302
305
306
306
311
317
318
320
318
314
303
295
292
293
293
293
294
294
294
287
276
268
274
318
390
465
511
483
391
327
293
278
275
281
291
294
292
292
290
291
293
296
299
299
299
300
303
304
308
310
310
312
316
320
325
329
334
337
337
339
345
349
353
354
358
360
359
359
356
348
338
331
322
313
304
297
293
291
290
288
287
286
287
288
289
290
288
289
291
292
293
294
293
294
295
295
296
296
295
295
296
299
298
297
299
300
302
301
302
305
309
308
310
313
320
324
325
325
321
311
300
293
293
296
297
297
296
294
291
284
275
270
290
347
425
496
513
444
358
311
287
275
279
288
294
296
295
294
295
297
298
298
298
302
305
305
307
309
312
313
315
319
322
325
329
333
338
340
343
347
353
354
355
360
362
364
363
360
356
348
338
329

312
304
298
294
290
289
288
288
287
286
286
287
287
288
286
287
286
285
282
283
285
287
286
286
289
287
287
287
287
287
288
288
288
288
290
293
295
297
300
302
303
308
315
319
318
315
308
298
290
289
290
288
290
289
289
289
286
278
267
276
322
390
458
491
447
362
307
278
266
270
283
294
295
292
290
292
292
292
294
297
298
298
301
303
305
307
311
315
315
317
321
323
324
326
331
334
337
341
347
350
352
356
358
357
352
348
341
334
323
313
304
296
291
287
285
283
284
283
281
280
281
281
282
283
285
285
284
284
285
284
283
285
287
289
289
291
290
290
291
293
292
291
292
295
296
297
302
306
306
307
309
312
318
320
319
316
306
297
296
297
298
298
295
293
294
291
283
274
276
306
366
434
481
465
382
320
291
276
277
286
297
302
301
301
301
302
301
303
305
305
306
308
310
311
313
314
316
317
319
321
322
325
330
333
335
338
341
343
347
351
351
351
351
350
346
338
329
323
314
306
299
293
291
287
285
284
284
284
284
285
284
282
283
287
289
290
289
289
289
290
289
289
289
290
290
288
288
291
291
290
291
289
287
286
289
294
298
299
301
303
308
311
312
311
306
296
288
287
287
286
286
288
289
287
280
270
261
272
319
388
455
483
439
363
316
289
277
276
282
290
291
290
292
293
293
295
297
300
301
300
301
303
306
308
311
311
312
314
318
322
326
330
333
334
339
343
346
348
350
352
353
352
350
345
339
332
321
313
306
302
297
293
292
288
286
286
288
287
286
285
288
289
291
292
293
293
293
295
295
294
294
296
296
296
298
299
299
298
297
299
300
300
300
304
308
309
309
310
314
319
322
324
322
317
308
300
295
297
300
301
301
301
299
294
284
277
289
337
407
481
513
470
389
339
312
296
292
297
304
304
301
302
303
303
305
306
306
306
309
312
311
312
314
317
319
321
324
328
330
331
335
340
343
345
349
351
353
356
358
360
361
359
353
348
340
331
322
316
309
304
302
302
299
298
298
299
303
302
301
301
303
306
306
306
307
309
309
310
311
313
314
314
313
316
317
317
316
313
312
312
313
315
313
313
313
315
315
317
320
321
322
324
330
334
336
335
333
326
316
310
308
306
305
307
308
305
300
292
282
280
308
370
448
510
509
431
360
320
298
292
291
297
300
298
296
294
295
295
294
294
297
299
302
302
304
305
306
310
312
314
316
320
326
327
329
331
335
338
342
346
350
352
354
356
355
353
347
338
328
317
310
305
299
294
291
288
286
287
286
286
287
289
291
291
292
294
296
297
299
301
301
302
301
301
302
303
304
304
305
307
306
306
307
309
308
308
309
310
311
311
310
313
318
322
321
322
329
333
334
333
331
318
306
301
302
305
306
306
306
304
298
290
281
287
332
405
486
531
497
403
339
307
292
290
296
303
304
299
298
299
298
299
301
302
302
305
308
309
309
310
314
315
317
321
324
328
331
335
339
341
344
348
352
353
354
358
356
354
355
351
343
332
321
313
304
298
292
283
279
277
278
277
277
276
277
279
277
277
280
280
278
278
280
279
280
281
281
281
282
284
285
283
281
280
284
286
287
286
284
283
282
286
289
289
291
293
296
301
304
303
301
295
287
284
283
280
280
281
280
278
275
268
254
248
277
338
409
464
458
382
312
273
256
253
262
274
282
282
279
280
280
281
282
283
284
286
290
290
290
293
295
299
302
305
309
309
310
315
318
319
324
330
334
334
336
338
341
341

333
326
317
308
300
294
286
279
276
273
272
273
274
271
268
271
273
272
272
273
272
274
276
277
277
277
278
280
282
285
286
288
289
287
284
285
287
288
288
286
288
286
286
288
293
295
296
296
297
303
306
309
309
303
292
288
286
285
285
285
286
286
285
281
271
263
275
317
380
440
467
426
347
298
275
267
273
281
289
293
291
290
294
294
292
295
295
300
301
303
305
306
309
312
312
316
319
324
325
327
332
333
337
339
343
350
353
355
356
357
356
352
346
341
333
324
316
310
303
298
294
294
290
290
291
291
293
293
294
295
296
297
298
299
301
302
302
300
302
304
303
301
301
302
303
303
303
304
303
302
302
302
301
302
303
302
301
304
307
310
308
307
311
318
320
319
315
307
298
294
294
293
294
295
292
290
288
281
272
274
303
360
432
482
472
395
333
302
284
280
282
291
294
293
292
291
293
295
297
294
295
297
300
301
300
304
309
311
309
312
314
316
320
325
327
327
332
336
339
342
345
347
348
349
348
344
337
330
322
312
303
299
295
291
285
284
284
284
281
281
282
283
283
283
285
283
282
283
284
284
282
283
285
285
288
287
288
288
287
289
288
288
290
290
290
291
291
294
293
294
298
297
298
302
304
303
303
305
312
317
318
315
311
302
294
289
289
291
293
295
293
291
286
276
269
280
327
401
475
503
457
374
325
299
288
285
290
296
296
292
291
292
296
298
295
295
299
303
302
302
303
309
312
313
316
317
320
322
328
331
333
338
343
346
350
353
354
357
356
355
352
349
341
334
325
315
305
300
294
292
289
288
288
286
287
288
287
288
288
288
290
290
291
292
291
293
295
295
293
294
295
295
293
293
293
296
294
294
296
295
294
293
294
294
295
297
299
297
296
297
301
303
305
306
307
315
319
322
322
319
310
302
298
298
299
301
300
298
297
295
287
277
280
317
388
468
519
497
413
352
320
299
293
297
301
302
302
301
302
303
303
303
304
307
308
311
312
316
319
319
320
322
327
327
330
333
338
340
347
352
353
354
356
360
365
368
370
365
359
352
342
330
321
316
308
301
296
292
291
290
289
293
292
290
292
291
287
288
291
295
294
294
293
292
294
295
295
295
295
296
298
298
298
298
296
294
295
296
296
295
294
293
291
290
293
294
295
296
297
299
302
303
306
307
307
315
320
317
313
310
301
297
295
296
295
294
294
295
294
287
278
271
282
328
399
467
492
440
360
313
286
277
283
290
298
300
300
298
298
299
302
302
303
304
306
307
309
309
312
317
321
321
322
323
326
331
331
332
337
341
347
348
351
353
356
356
355
352
346
342
334
325
318
311
305
297
293
292
293
293
293
293
293
290
293
295
296
295
298
300
297
296
296
296
297
296
299
301
302
303
301
301
300
306
305
300
303
304
304
304
304
305
302
303
306
306
305
306
309
311
309
313
318
322
322
327
326
317
306
306
306
304
301
302
303
301
300
295
287
286
308
359
418
461
457
389
324
294
284
284
289
298
304
308
310
303
302
307
305
308
313
315
313
313
316
317
318
319
320
324
327
331
333
334
334
339
343
349
350
351
350
354
357
361
361
354
345
337
331
326
319
313
310
304
302
304
305
302
299
299
299
299
300
303
305
302
303
308
306
306
313
315
310
311
312
313
312
312
312
314
312
312
315
313
316
313
313
311
312
316
320
316
316
321
326
328
325
323
322
319
308
307
307
304
303
306
310
309
305
301
301
299
305
343
391
423
427
387
334
302
285
281
287
301
312
315
311
308
305
308
308
312
316
317
319
317
317
316
317
319
323
326
328
333
336
332
332
334
335
344
347
349
349
347
349
350
346
343
336
325
317
315
310
307
306
302
293
292
298
298
295
292
292
296
294
296
297
297
292
293
296
299
297
294
297
294
292
294
302
305
301
293
295
299
301
297
295
295
299
302
303
304
304
298
300
308
310
312
306
304
298
291
289
290
290
292
294
296
293
290
286
284
296
328
376
409
412
370
323
301
285
282
286
295
301
300
301
302
298
304
308
307
308
309
315
314
319
320
317
314
321
327
331
330
332
333
334
337
340
345
354
352
351
355
357
356
349
347
346
344
337
330
317
313
318
318
313
313
313
313
310
315
317
311
315
318
323
318
314
317
322
321
321
319
324
323
322
323
330
325
321
324
328
328
330
334
330
321
325
331
337
336
336
328
329
333
339
338
333
324
322
323
318
317
323
323
321
325
320
315
306
308
318
350
395
431
436
400
353
330
310
302
312
314
320
320
316
314
317
317
318
323
320
313
312
314
316
321
326
322
317
320
329
332
330
330
333
340
341
340
342
345
350
347
348
347
345
347
340
329
323
320
313
307
301
299
298
304
306
303
296
298
299
295
295
298
304
298
297
301
303
298
296
294
298
300
297
300
298
300
305
300
298
301
303
298
299
306
311
305
304
308
308
307
303
305
313
316
312
310
309
306
308
302
294
296
296
293
293
298
298
290
285
299
334
376
410
421
386
332
300
288
288
288
293
303
298
295
298
298
295
292
292
297
299
294
297
300
298
295
298
302
305
306
308
311
312
313
317
324
323
321
325
328
329
328
331
328
319
316
311
304
299
297
290
284
280
276
276
276
273
277
277
276
273
271
274
277
276
275
275
277
278
275
277
279
284
284
279
274
276
280
278
276
278
277
280
279
280
276
276
278
278
276
275
275
273
276
275
275
276
275
275
273
277
281
279
277
281
285
287
291
293
291
287
283
280
277
275
275
278
279
280
282
278
272
270
286
328
381
420
423
376
324
295
280
276
279
286
292
288
287
288
290
289
290
294
293
293
295
297
299
301
303
303
302
305
309
310
311
312
316
322
326
329
329
330
332
336
339
338
338
334
332
326
318
310
305
297
291
289
285
281
281
279
278
278
279
278
278
277
279
280
279
280
283
283
282
283
284
286
287
286
286
286
286
289
287
286
289
288
286
287
289
289
290
291
292
293
293
295
297
297
297
296
295
295
297
299
299
298
299
302
302
303
308
309
304
304
309
311
309
310
311
312
312
312
312
313
314
315
319
322
320
321
323
328
332
330
331
328
325
319
313
311
311
310
310
311
310
307
301
296
299
334
395
460
493
465
386
333
308
299
302
304
308
308
307
307
307
307
307
306
306
309
312
314
313
311
315
318
319
319
320
322
326
330
333
334
336
339
344
347
349
353
355
354
356
356
355
351
345
336
328
321
313
304
299
296
293
291
290
290
289
288
287
288
290
290
290
289
287
287
288
288
290
290
289
290
289
287
287
288
287
287
290
288
287
285
286
287
284
284
285
285
284
284
284
283
285
285
284
284
286
286
286
284
287
289
288
289
291
290
292
291
292
294
292
294
297
302
301
302
305
309
312
312
312
308
307
302
296
290
288
289
290
291
291
287
279
270
268
296
358
433
489
487
407
334
296
279
276
282
291
294
293
290
290
290
292
294
297
298
300
302
303
302
303
307
310
311
315
318
320
322
327
332
335
337
342
346
348
351
353
356
357
357
356
351
343
332
325
317
309
302
296
290
288
288
285
284
284
284
282
282
282
283
283
283
283
284
284
285
286
289
290
290
291
293
293
293
294
295
294
294
297
298
298
298
297
298
298
298
299
300
299
298
299
300
299
300
300
301
302
302
302
302
302
302
304
308
311
312
313
317
321
324
327
325
323
325
317
307
302
302
303
303
304
305
304
301
294
285
284
311
376
453
509
502
417
344
309
288
283
289
300
309
310
308
305
306
309
309
309
311
313
313
313
315
317
320
324
329
329
330
334
338
341
345
348
351
354
357
360
364
367
369
370
369
369
364
353
344
334
324
314
307
301
295
292
289
287
287
287
287
288
289
290
289
289
290
291
290
292
293
294
295
295
294
296
297
297
298
297
297
296
297
297
297
296
296
298
298
298
298
298
298
301
302
300
300
301
302
302
302
301
302
304
308
311
313
315
319
325
329
327
324
324
321
311
302
300
301
301
303
304
303
302
296
288
278
286
333
406
480
515
476
384
325
293
279
284
296
306
308
305
304
303
306
307
307
307
309
311
312
314
317
319
320
320
324
327
331
334
338
341
346
351
355
358
362
364
367
368
370
371
369
363
355
349
338
326
317
311
305
299
294
291
291
290
288
288
289
289
289
291
289
288
291
292
291
290
292
293
293
295
295
296
296
297
296
295
296
297
298
299
299
301
300
299
300
301
301
298
299
298
298
296
297
300
302
302
304
304
303
303
306
308
307
312
318
321
323
321
319
317
307
299
295
293
293
294
297
296
295
292
284
275
274
305
371
447
505
498
410
333
293
274
272
282
291
296
295
294
294
294
297
297
299
300
301
300
302
304
308
311
312
314
317
321
321
325
329
334
338
344
349
353
355
359
362
363
365
362
358
352
344
333
323
314
306
299
294
292
288
284
282
283
286
285
284
283
284
285
286
288
289
288
287
290
292
291
292
294
294
294
296
298
298
298
299
298
300
300
299
300
299
301
302
301
299
300
301
303
304
305
304
303
305
308
312
313
315
320
326
329
328
326
323
318
308
302
300
299
300
300
299
299
296
290
279
273
288
341
412
484
512
455
364
308
283
274
277
288
299
302
300
298
298
298
300
300
302
302
304
306
307
310
312
314
316
318
322
328
332
336
338
342
346
351
354
358
360
363
366
367
368
364
356
347
338
327
316
306
299
293
288
285
284
281
280
281
283
283
284
285
284
283
283
284
284
283
284
285
285
287
288
287
284
284
287
288
291
290
288
287
288
289
289
288
287
290
290
290
291
293
294
296
297
301
301
304
311
317
317
313
312
310
301
290
285
286
285
286
287
288
287
283
279
267
263
291
355
433
497
501
419
338
295
273
271
278
289
295
295
293
292
293
293
294
296
299
299
302
303
306
308
310
311
315
318
320
324
328
332
336
341
346
351
354
357
359
360
362
362
361
358
351
343
332
320
312
303
298
293
287
284
283
283
281
280
280
281
283
284
285
286
285
286
288
288
288
287
288
288
289
290
290
290
292
292
293
292
293
292
292
292
294
297
298
298
298
299
299
302
308
308
305
310
317
319
319
318
316
311
300
292
290
290
292
295
295
292
291
288
278
267
274
321
394
473
518
483
385
318
286
272
273
283
294
296
292
294
295
295
297
298
298
299
302
306
308
309
311
315
316
319
323
326
328
332
337
341
345
350
353
357
361
366
369
369
368
365
360
352
342
331
321
311
302
295
292
287
286
286
288
286
279
283
287
288
288
286
286
289
291
292
293
295
295
295
296
298
299
298
299
301
300
299
301
301
301
299
300
300
299
299
299
300
303
304
303
301
303
308
312
312
313
319
325
326
325
324
322
316
304
299
299
299
300
300
299
298
297
290
280
273
291
348
422
492
516
454
363
312
286
275
281
296
305
305
302
303
305
306
308
309
309
309
311
313
315
316
319
321
324
327
332
334
335
336
341
344
348
352
358
362
364
367
368
369
368
362
356
347
337
327
318
307
300
295
291
288
285
286
287
288
287
287
287
288
288
288
286
288
291
292
293
294
296
296
296
297
298
297
297
298
299
298
299
300
300
301
301
301
299
297
299
300
300
301
301
301
300
302
304
307
308
311
317
322
325
325
322
317
308
299
299
299
301
302
302
300
299
296
286
279
278
306
366
439
489
474
392
324
287
271
274
284
291
297
305
307
305
300
303
309
311
310
308
308
309
317
321
320
310
310
320
337
338
332
335
337
340
344
352
353
356
362
365
366
364
365
359
350
342
331
323
314
303
297
297
300
299
291
286
286
284
288
292
291
290
293
294
294
295
294
295
297
300
303
298
293
293
293
296
305
305
302
303
302
302
300
300
302
302
301
304
303
303
304
303
302
303
303
304
304
307
310
311
309
309
316
323
327
329
328
325
322
313
304
302
304
301
301
300
303
302
296
286
276
283
322
391
458
491
461
384
331
301
284
284
294
302
302
300
298
298
302
303
304
305
310
312
311
313
314
315
316
320
322
326
327
328
332
333
338
346
348
348
352
359
363
360
360
363
361
353
349
339
331
326
318
311
302
297
295
291
294
291
290
293
291
288
286
288
288
288
292
293
290
293
295
294
293
297
298
297
299
30100
298
299
300
300
301
302
299
295
299
299
298
297
301
305
303
300
297
302
304
305
307
312
317
322
323
322
318
316
308
299
297
295
298
298
299
301
302
295
283
271
270
306
373
449
505
498
417
353
317
297
286
290
298
303
300
301
301
303
303
300
305
308
303
307
312
313
310
314
319
321
323
327
329
330
332
337
341
344
346
349
353
357
361
362
359
355
353
344
335
325
317
309
303
296
294
291
290
286
284
284
286
287
286
282
283
285
288
286
283
288
289
288
290
289
288
290
289
291
294
294
292
290
292
294
294
293
294
293
291
292
296
300
302
296
292
292
293
296
302
299
298
300
296
299
304
306
311
307
316
329
328
325
322
322
316
307
307
305
300
294
297
296
297
300
295
288
275
285
333
400
480
525
490
404
346
316
295
286
296
305
305
301
307
304
308
307
305
308
312
314
321
318
316
319
324
324
325
327
332
338
339
340
347
354
357
356
362
367
374
375
377
378
376
372
366
358
343
332
327
317
307
306
306
300
297
299
301
297
297
296
301
302
301
300
298
299
299
304
304
302
301
299
306
306
305
305
306
307
311
310
308
309
307
307
305
303
307
309
307
308
305
307
311
310
309
309
310
312
306
309
314
315
318
321
318
321
327
328
327
328
328
327
317
307
299
296
295
293
295
295
293
290
280
268
260
269
315
385
471
523
496
411
352
317
295
283
284
293
296
291
290
291
291
293
296
299
301
300
302
305
304
308
310
315
316
317
322
327
331
338
339
341
346
349
351
356
364
364
366
364
363
358
352
341
334
324
314
308
301
301
300
296
293
288
290
292
291
293
291
292
295
292
292
291
292
294
292
297
302
301
296
295
297
299
298
298
295
295
294
291
296
299
303
302
298
298
296
292
297
301
298
294
299
302
299
297
299
305
309
309
312
320
325
322
322
318
317
311
301
297
299
303
300
296
302
303
293
276
264
264
282
339
417
479
495
432
359
319
292
281
284
293
294
300
291
276
277
293
303
293
291
298
300
300
306
304
303
307
309
313
309
314
312
320
327
322
318
333
334
338
345
353
347
351
355
349
344
332
312
310
301
291
286
279
285
280
273
274
273
277
287
283
280
275
276
279
285
286
287
287
287
290
287
287
299
289
290
295
292
292
299
296
291
294
293
297
301
313
323
314
315
320
323
325
316
309
321
315
325
336
331
330
338
342
343
337
352
357
363
360
354
353
347
339
335
333
335
337
337
339
331
332
329
313
304
326
379
441
510
530
473
404
360
336
326
323
321
325
324
320
321
318
323
326
325
317
315
318
331
329
321
308
305
323
351
356
353
353
352
347
333
341
360
364
366
362
354
362
366
365
352
343
353
351
332
315
310
304
305
297
294
287
292
288
291
289
290
292
281
279
288
291
286
289
295
291
293
302
306
285
271
279
290
276
265
277
302
306
295
287
289
298
298
303
296
297
292
300
305
309
304
306
309
309
311
317
317
320
318
319
324
335
342
343
340
335
327
321
320
322
318
315
315
319
316
319
313
298
298
334
396
470
512
496
426
373
336
316
314
324
332
332
327
324
332
331
331
333
331
335
341
345
343
342
343
350
349
344
349
347
340
337
340
341
362
387
398
387
384
382
383
383
388
386
383
374
362
350
350
341
337
333
324
322
319
321
325
321
319
319
320
323
323
323
320
319
321
325
328
327
328
328
326
324
329
327
325
327
325
327
324
326
327
323
325
322
322
322
325
323
324
328
333
335
337
329
319
318
328
333
344
349
330
327
329
336
330
323
315
316
315
312
310
312
320
306
291
281
290
319
375
453
509
505
438
377
350
327
305
306
308
311
307
308
307
304
306
306
301
302
305
308
305
303
308
313
310
316
311
311
311
312
315
321
325
327
330
338
338
337
333
336
337
335
332
324
313
307
304
297
291
286
269
255
265
279
276
277
283
287
281
276
272
272
272
271
275
277
274
275
274
278
279
281
282
281
283
281
282
285
286
287
288
286
287
287
291
292
292
289
294
298
296
295
294
295
296
297
303
311
313
312
311
309
305
296
290
286
283
283
282
282
282
281
277
267
254
254
286
352
431
488
481
409
347
305
280
267
261
263
268
268
268
271
273
276
278
281
279
279
283
289
289
289
293
296
293
296
301
304
306
306
309
313
312
315
321
326
326
325
329
331
332
328
318
309
299
291
279
269
263
258
255
252
251
251
251
249
246
246
250
249
246
247
251
254
254
255
252
252
256
254
249
245
249
252
253
253
254
255
255
252
253
258
260
262
262
260
263
265
263
260
261
271
274
273
274
280
284
286
283
280
280
271
259
256
257
257
261
262
261
258
256
248
232
228
263
336
415
481
483
413
345
308
280
266
270
274
275
276
276
276
278
278
282
285
288
291
289
288
292
298
302
305
304
305
310
314
315
317
320
327
333
338
343
346
350
352
356
355
352
348
344
338
328
321
314
306
303
297
297
296
295
291
293
294
293
294
292
292
296
298
298
297
296
297
296
298
302
304
304
303
302
303
305
303
302
302
303
304
302
303
303
303
301
301
302
302
302
304
302
304
307
307
310
315
321
323
320
318
315
308
294
291
295
294
297
299
299
301
297
292
281
275
297
353
425
480
479
409
340
299
275
269
272
274
275
273
271
269
269
269
266
262
259
255
252
253
254
253
251
254
257
258
262
262
265
270
276
285
292
292
293
297
301
301
303
306
303
299
294
288
278
269
261
255
246
240
237
242
247
247
243
243
243
245
249
253
251
245
244
248
254
255
253
254
257
260
266
264
255
252
255
261
262
264
275
272
267
269
266
254
262
268
258
249
262
266
271
290
290
294
284
285
289
303
310
315
319
316
305
294
290
295
299
302
310
305
305
308
301
295
282
295
341
416
499
544
510
413
352
323
314
303
299
312
326
330
311
305
313
323
327
327
327
327
327
332
339
336
339
346
348
355
362
369
371
374
381
389
391
391
392
406
415
414
407
405
402
395
389
379
369
356
348
343
337
329
322
311
312
320
317
316
320
324
331
326
318
316
319
317
313
314
320
321
326
314
306
306
324
331
324
326
334
334
326
326
332
334
328
325
330
335
333
333
331
333
334
333
336
342
346
351
355
359
362
355
353
349
339
341
347
321
320
329
332
331
330
325
313
302
318
376
458
542
575
522
427
370
336
323
320
327
337
341
336
333
336
336
345
342
332
326
327
347
358
365
348
340
350
361
359
358
364
369
377
379
376
373
381
387
394
391
390
392
391
389
385
375
364
351
336
324
317
316
311
309
306
302
294
299
302
302
303
304
308
303
302
305
308
307
310
305
305
310
313
316
312
313
311
315
316
316
318
314
317
314
317
316
315
320
321
320
316
316
318
321
327
330
332
329
333
342
343
343
342
339
337
326
317
314
316
320
317
314
314
313
311
301
290
293
336
410
491
539
518
425
351
313
297
296
299
306
313
313
314
314
312
311
312
319
322
323
322
324
322
322
325
329
330
333
333
332
339
346
346
347
352
356
356
358
365
371
373
367
363
357
349
339
330
321
312
307
301
301
294
289
289
290
290
290
292
292
290
291
292
295
296
297
296
296
296
296
297
295
296
298
295
294
295
296
291
291
295
297
291
292
289
290
292
292
290
288
293
296
299
298
299
301
306
307
310
309
306
298
287
282
282
281
280
282
282
282
282
273
257
251
273
335
414
480
487
414
336
293
268
258
264
274
281
279
278
277
276
278
279
279
281
283
285
289
288
287
289
292
295
298
301
303
306
311
315
320
327
331
335
338
340
342
344
344
342
340
334
323
311
303
294
285
281
274
271
268
266
265
265
265
264
263
263
264
264
266
267
268
269
271
271
270
271
272
274
275
274
275
275
274
274
275
274
273
272
274
278
278
277
278
277
275
278
284
284
282
287
292
294
293
299
307
310
312
311
307
299
290
289
292
293
294
294
294
294
292
284
273
270
291
352
433
502
513
445
364
319
295
282
283
292
296
297
295
295
296
297
299
302
303
304
306
311
311
312
314
316
318
320
322
327
331
333
334
337
341
346
350
354
358
361
361
361
361
358
354
346
335
325
314
307
304
299
292
286
283
284
283
283
284
283
282
282
283
285
286
289
290
289
290
293
294
292
293
294
295
296
296
296
296
295
295
295
294
295
295
294
294
295
296
296
293
295
297
298
298
296
297
297
302
305
304
306
314
320
322
319
316
313
303
294
292
290
289
291
292
293
292
288
280
267
266
307
384
467
525
513
425
351
313
293
282
284
294
299
300
296
295
292
295
296
297
301
302
304
308
310
307
308
315
320
322
324
328
331
333
335
341
344
348
350
355
356
359
360
361
360
354
346
339
330
317
308
301
293
287
283
284
281
279
280
280
282
281
282
283
282
283
287
286
285
287
287
288
288
290
292
292
292
290
291
290
290
291
294
295
293
292
293
293
291
292
290
290
290
290
290
291
291
290
294
296
295
294
295
297
301
304
307
314
320
324
326
321
317
313
305
298
293
293
293
294
294
296
293
286
275
267
273
320
399
484
533
501
406
339
302
280
276
284
292
293
292
292
294
294
295
297
295
299
301
303
305
309
313
315
317
322
324
324
327
332
335
340
346
349
353
356
362
366
368
369
367
366
361
353
345
333
321
312
305
301
293
288
286
286
287
287
285
281
280
283
284
284
285
286
288
289
287
288
291
290
292
292
290
292
292
294
296
296
295
298
297
299
300
300
297
297
298
298
300
300
298
298
301
301
304
303
303
304
306
308
311
314
316
321
327
330
330
327
324
317
310
306
302
304
305
306
306
306
306
301
293
283
297
352
429
503
530
470
376
322
296
283
289
302
313
315
311
309
309
312
313
315
316
318
320
322
323
325
328
331
332
333
338
340
342
345
349
352
353
358
364
368
368
371
373
374
370
366
359
351
342
334
325
313
305
302
300
292
289
289
290
289
289
289
290
290
291
292
292
294
293
295
295
295
297
299
298
299
300
300
300
299
299
299
300
300
301
299
300
302
304
302
300
302
303
303
303
305
305
305
306
305
305
307
309
312
312
317
322
326
326
326
322
319
312
305
301
300
299
298
299
301
299
296
285
274
277
313
379
455
505
488
402
335
301
282
283
293
301
303
304
303
304
303
304
307
307
309
312
313
313
315
318
319
321
323
326
329
331
336
338
340
344
349
352
354
360
362
365
365
365
364
358
351
342
331
321
313
307
300
293
290
289
288
285
285
288
288
287
290
291
291
291
293
295
295
294
296
297
296
296
298
299
297
296
295
297
297
298
299
299
300
297
299
298
297
298
300
299
300
301
301
299
300
302
302
303
304
303
303
304
304
306
307
309
311
312
312
318
324
325
325
324
322
319
310
305
302
301
301
304
303
302
301
295
286
276
285
335
413
494
527
481
390
334
303
286
286
294
302
301
300
300
299
300
302
304
305
307
311
312
314
314
317
319
319
322
326
329
331
334
339
343
346
348
353
356
360
363
364
365
364
361
356
348
341
334
323
312
305
298
291
290
289
287
285
285
286
286
284
283
283
283
285
288
290
290
290
290
291
290
291
292
293
293
292
292
294
293
292
293
294
293
292
292
292
292
293
293
292
292
291
292
292
293
294
293
293
293
292
291
292
293
294
293
291
293
295
296
295
294
296
298
300
303
306
307
308
313
320
323
322
318
317
314
308
298
295
293
295
294
295
297
295
287
275
270
289
350
431
505
526
468
378
324
296
285
284
291
299
301
298
296
297
299
300
301
302
303
304
307
311
313
314
314
319
323
324
325
329
331
334
338
342
345
347
352
355
357
360
362
362
360
357
350
341
328
316
309
301
293
288
283
281
280
279
279
277
279
280
281
280
280
282
285
283
281
281
282
285
286
286
286
287
288
289
288
290
291
291
291
293
296
296
294
293
292
290
290
289
290
291
290
290
291
291
293
291
291
294
294
294
292
294
295
295
296
298
299
300
300
304
307
308
307
311
318
321
322
322
319
316
310
302
295
294
294
295
295
297
299
294
285
276
272
298
361
446
519
531
458
368
318
290
279
282
291
299
299
297
295
295
299
299
300
302
304
305
305
309
311
313
314
316
321
323
325
329
333
337
340
345
349
351
354
361
365
365
369
368
365
360
353
344
331
320
312
304
296
290
288
287
282
280
282
284
283
284
287
286
285
285
287
288
289
291
292
292
292
294
294
293
294
295
295
295
295
296
297
295
295
296
297
297
296
296
297
295
295
295
297
295
295
291
293
295
297
298
299
300
302
306
308
310
315
323
325
324
322
322
317
306
298
294
293
294
298
299
299
296
293
285
274
276
320
396
483
544
526
425
344
307
287
281
288
299
307
306
304
305
307
308
308
311
312
309
310
316
318
317
320
324
327
330
335
337
340
345
351
356
358
363
369
371
373
377
382
380
374
366
363
357
346
332
322
315
308
302
300
293
290
291
292
292
293
296
296
298
297
298
302
305
304
306
307
307
309
310
311
312
311
315
314
312
312
315
315
314
316
315
314
312
312
313
313
314
311
311
310
314
316
313
312
310
312
316
318
319
323
327
330
333
332
327
325
317
308
303
302
303
303
303
305
303
299
292
282
278
302
363
443
511
519
440
356
307
283
282
293
307
315
316
315
314
312
313
315
315
318
320
321
321
324
326
328
330
332
333
337
340
343
347
349
353
359
364
366
367
369
370
375
375
372
366
357
344
332
322
313
306
298
291
286
287
284
282
281
284
284
283
284
292
289
285
297
295
300
300
288
288
297
303
305
307
312
314
315
317
322
323
324
328
330
329
325
325
324
324
321
320
317
314
310
303
297
294
292
293
296
297
298
302
308
308
308
308
305
300
290
287
284
287
290
292
294
294
294
292
282
274
283
332
409
488
524
479
387
329
299
287
291
301
311
316
317
317
316
318
321
323
323
324
326
330
332
334
337
338
339
342
346
350
354
359
360
363
370
375
381
382
386
392
395
394
394
392
384
377
369
355
343
336
329
323
319
319
320
322
322
323
323
325
327
329
332
332
332
333
334
335
337
339
339
337
339
338
336
334
336
335
332
332
330
330
329
327
320
315
312
307
300
295
294
293
288
284
287
292
292
288
287
289
292
291
292
289
285
276
266
264
262
262
263
264
262
263
262
256
247
241
260
319
401
477
501
438
351
303
279
269
277
289
298
304
308
313
318
324
328
333
337
344
351
355
357
364
369
371
377
384
390
391
396
403
410
413
419
426
429
431
438
443
444
445
445
442
432
422
413
404
393
384
376
368
364
360
358
359
357
354
351
349
346
348
348
346
347
346
344
343
342
340
338
338
338
336
333
332
329
330
328
328
327
323
320
319
317
318
318
317
317
314
314
317
317
317
317
317
319
321
321
322
327
331
331
329
325
321
309
303
298
298
298
296
298
299
297
290
281
271
273
312
389
473
529
511
416
342
302
281
274
280
290
295
295
294
291
293
294
295
297
297
299
298
299
303
305
306
309
311
314
315
319
324
328
330
334
338
341
344
349
354
356
356
358
355
348
339
329
316
306
299
290
281
275
270
267
266
267
266
265
265
266
265
265
265
268
266
265
266
266
269
271
270
269
269
267
268
270
271
271
270
271
270
271
271
271
269
270
268
267
268
269
271
270
271
272
273
272
273
276
277
278
282
287
294
298
301
300
297
298
294
282
276
276
276
275
275
275
277
277
273
261
251
260
310
392
474
521
486
388
320
284
265
264
274
287
293
294
292
292
296
299
300
303
306
309
311
316
319
319
320
323
326
330
333
337
342
344
348
354
359
363
368
372
375
377
376
375
371
366
357
345
332
323
313
304
295
289
284
282
281
280
280
278
278
279
280
280
279
279
279
279
281
281
280
279
279
279
279
281
282
283
281
279
280
281
279
278
281
278
277
278
280
281
280
279
277
277
281
283
282
283
283
282
284
289
289
289
293
298
295
293
292
288
274
267
275
273
269
267
267
271
273
268
263
249
245
275
340
417
477
474
395
315
271
247
244
257
271
280
277
274
276
282
279
279
280
286
285
287
288
293
297
302
300
299
301
312
315
318
321
325
330
336
337
337
349
360
365
364
363
356
349
344
337
326
309
297
288
288
291
277
264
260
253
263
281
291
301
300
304
307
308
304
292
290
296
303
308
301
303
302
298
303
308
311
315
314
314
300
297
313
322
304
295
296
327
334
336
325
311
318
334
329
335
339
342
344
347
344
337
362
369
366
366
361
356
343
336
330
318
345
348
344
340
334
324
319
311
323
374
445
521
554
502
420
366
340
323
318
321
328
334
331
328
321
327
328
329
332
332
332
328
328
334
338
338
342
342
342
340
344
346
347
350
353
358
357
360
364
363
365
367
366
363
356
351
341
329
322
314
309
301
296
297
295
295
292
290
290
286
285
284
284
284
285
286
283
284
286
287
289
287
284
288
287
289
289
292
285
286
290
290
289
292
294
293
292
291
290
291
293
289
292
294
300
302
303
300
301
298
306
325
326
324
320
313
302
297
299
300
300
301
305
303
298
293
282
275
300
353
435
507
524
459
380
344
317
299
296
302
306
309
309
307
305
304
311
315
314
312
311
314
315
319
324
326
326
328
333
335
335
338
342
347
349
351
354
357
360
363
365
364
364
359
351
341
333
327
315
306
296
289
288
283
281
282
286
285
279
278
277
280
281
282
282
285
287
288
285
283
284
286
286
286
287
288
288
289
288
290
290
287
287
288
288
286
285
290
291
289
287
290
291
290
290
299
304
308
306
310
315
319
322
318
315
309
299
295
296
294
296
295
291
294
297
288
273
263
275
327
401
481
526
487
403
346
311
292
288
294
304
301
298
300
300
299
301
305
308
306
307
307
308
313
317
319
318
319
321
325
330
331
332
336
342
342
345
348
354
356
357
356
354
353
346
337
330
319
311
305
297
292
287
283
284
282
277
275
278
282
281
283
287
286
284
282
280
281
284
285
284
285
286
285
286
286
283
285
287
287
289
288
286
285
288
288
286
288
288
291
292
290
289
295
300
297
297
299
304
308
308
309
309
302
294
290
291
290
290
293
293
292
291
285
272
259
267
311
382
457
497
467
389
335
304
284
279
282
292
293
296
296
291
290
295
295
295
296
298
302
306
309
306
307
307
310
315
319
322
324
326
330
333
334
339
343
346
349
348
351
350
348
343
336
328
320
311
303
295
291
290
285
280
281
284
285
283
285
285
286
282
283
287
287
288
288
289
291
291
291
292
292
293
296
296
295
297
298
296
297
299
302
301
300
301
303
303
301
300
301
302
302
303
306
311
312
310
313
321
324
325
322
323
316
305
298
298
297
297
300
299
297
296
289
278
269
277
326
402
481
524
491
409
352
320
301
293
294
299
300
299
296
296
297
296
296
298
298
296
300
304
306
307
309
313
314
314
316
319
323
327
330
335
337
342
346
352
354
355
359
357
352
347
342
332
324
316
310
302
295
292
289
284
285
287
286
284
287
289
287
288
289
287
288
290
291
291
291
294
293
296
298
298
297
295
295
294
295
293
295
296
300
299
296
296
297
297
296
298
297
296
299
301
302
304
306
309
311
316
321
322
326
325
318
313
306
304
300
296
298
299
298
296
296
291
278
267
275
319
396
480
526
499
415
355
321
301
291
293
301
302
301
301
300
298
300
305
308
307
311
311
312
315
317
318
317
320
326
328
327
330
335
339
343
348
352
356
357
360
362
363
363
359
354
343
336
328
319
310
305
295
287
287
288
288
287
287
287
287
286
288
286
285
285
291
294
291
290
289
293
292
292
293
294
295
296
297
296
297
299
298
296
295
295
296
296
297
298
299
296
298
300
299
299
297
299
300
301
306
309
307
309
315
319
319
318
316
313
303
297
295
295
296
296
298
296
297
295
286
273
271
300
364
439
494
486
408
342
306
287
284
293
296
300
299
299
299
298
299
303
303
303
307
308
308
309
316
318
316
319
324
326
327
331
338
339
339
346
348
353
352
355
357
359
355
352
348
344
336
328
323
316
310
303
301
299
294
294
293
291
292
292
293
293
290
290
290
291
293
294
290
292
298
294
292
294
296
298
298
299
301
299
299
300
299
299
300
299
301
304
302
300
297
297
300
301
300
304
307
310
309
310
310
315
320
322
318
316
315
308
302
298
297
297
298
301
302
301
296
288
280
277
305
364
427
469
464
398
340
305
286
287
292
303
311
313
310
306
311
312
311
309
316
316
316
314
315
321
322
328
331
330
330
331
334
338
338
342
346
346
347
355
357
360
361
359
353
347
343
338
331
324
317
311
306
303
301
300
297
296
298
298
296
300
301
296
295
299
299
298
301
304
300
298
301
305
306
302
306
311
309
310
310
314
315
311
307
309
308
309
315
317
313
319
314
315
319
322
317
318
324
329
331
330
326
321
316
309
308
312
315
316
313
314
319
310
303
301
317
355
411
445
437
392
343
320
301
301
305
313
318
319
317
319
324
321
319
317
322

326
323
325
335
334
332
338
338
334
337
337
338
339
345
350
350
353
355
357
357
357
355
353
351
344
337
329
321
317
315
310
305
305
304
303
305
304
301
299
305
305
306
299
298
300
300
302
303
300
297
300
304
302
300
301
301
300
301
306
302
300
299
305
306
303
306
306
305
304
307
306
305
307
311
312
310
309
312
319
311
305
301
301
302
298
298
305
306
302
297
290
285
299
340
389
432
439
395
339
304
292
295
301
306
313
315
308
306
311
309
309
310
313
314
309
315
314
314
321
321
320
320
321
326
328
329
332
332
334
338
339
341
342
343
345
348
345
337
336
332
318
308
304
302
299
297
296
292
290
288
290
292
288
290
291
294
294
291
292
291
295
298
300
298
300
300
299
301
301
301
300
299
301
298
301
302
301
305
306
304
302
305
305
303
301
302
309
310
309
314
316
315
316
311
310
307
302
301
298
297
298
299
302
297
295
293
288
279
290
334
387
420
427
387
336
300
287
284
291
297
300
302
301
302
304
299
300
304
306
306
305
304
308
313
313
315
312
314
318
321
321
322
325
327
329
331
334
337
338
342
346
346
346
340
334
330
322
315
308
304
300
298
296
299
296
295
293
297
296
300
297
296
298
297
298
297
300
303
304
300
301
304
301
301
299
301
302
304
302
306
305
306
304
305
304
304
306
306
304
304
305
304
305
306
304
304
305
304
306
303
302
306
312
314
311
310
314
320
319
316
313
309
304
301
300
304
304
300
299
297
297
289
282
286
314
368
426
455
439
377
331
307
296
295
296
303
308
308
308
307
309
312
312
311
313
318
318
316
322
323
325
325
330
332
333
334
337
340
345
346
352
354
353
357
361
362
361
358
359
358
350
344
337
329
323
320
314
307
306
306
305
301
301
302
301
299
302
305
306
304
303
304
303
305
308
310
307
306
306
306
305
307
308
306
306
305
306
302
306
307
306
305
308
307
308
308
307
305
303
305
306
309
309
310
305
303
305
309
309
305
305
304
303
302
303
306
306
304
304
304
306
307
306
304
306
305
306
310
311
310
311
315
318
320
322
321
318
313
305
299
298
300
300
300
302
300
294
282
277
294
340
406
469
489
440
363
320
300
292
294
298
301
301
302
303
301
299
302
304
305
308
311
312
313
314
316
319
321
323
324
326
327
331
333
336
340
345
349
351
353
355
358
360
361
358
353
350
346
339
330
323
316
311
305
302
300
298
292
293
296
294
292
294
296
297
297
298
298
296
297
298
298
295
296
296
294
296
297
295
293
294
294
295
293
293
293
294
293
293
296
295
295
294
295
292
292
292
293
293
294
295
294
293
293
294
294
294
295
296
296
297
297
297
297
299
301
304
305
308
310
307
308
316
321
324
327
326
325
322
319
311
305
301
303
299
299
302
303
301
290
280
278
302
361
442
508
510
440
367
326
303
293
295
299
302
302
300
301
297
297
297
300
302
304
305
302
306
309
310
312
314
317
321
321
326
331
333
334
337
342
344
349
354
357
357
360
361
362
356
351
343
333
323
315
309
302
297
293
290
288
287
286
283
284
284
287
287
287
287
288
288
289
291
293
290
290
291
291
293
294
294
293
294
297
298
296
295
295
294
294
295
293
293
293
296
297
295
296
295
296
298
299
299
298
299
301
300
298
297
297
298
298
300
301
301
299
300
299
299
299
302
300
300
301
302
304
305
308
308
308
309
314
317
318
321
328
330
328
328
329
329
323
317
310
305
302
305
307
307
306
303
294
280
279
310
378
464
536
542
462
379
335
312
299
297
305
310
310
308
308
307
306
311
314
313
313
316
317
318
319
321
324
324
326
330
335
337
341
344
348
352
357
360
362
366
370
372
373
373
372
368
361
352
341
329
318
310
303
296
291
289
287
285
285
285
285
287
288
288
288
288
287
289
289
291
289
289
290
292
293
292
292
294
294
294
295
296
296
297
298
298
298
297
300
298
298
298
299
300
300
301
301
300
298
299
299
300
299
300
301
301
300
298
299
298
299
300
301
299
302
299
300
298
300
299
299
298
298
300
300
301
303
305
304
310
315
315
316
322
326
327
325
324
324
317
307
301
302
300
300
301
300
297
295
288
275
266
294
359
443
520
539
467
375
326
299
286
283
292
299
298
295
294
294
293
295
298
298
300
304
308
309
310
313
316
319
322
324
329
329
332
335
339
343
347
351
355
359
362
362
362
364
364
361
355
347
337
325
314
308
301
295
291
289
285
284
282
282
282
282
283
285
286
284
287
287
285
285
287
288
290
291
292
290
288
289
291
293
293
293
294
291
287
287
293
297
298
295
296
296
298
294
293
295
293
292
292
293
293
293
293
296
296
298
298
299
298
300
302
303
302
301
301
303
305
307
308
308
312
314
320
322
329
329
326
325
324
317
305
300
299
299
298
299
299
298
294
283
271
271
312
385
471
535
528
436
357
315
293
286
291
300
307
307
304
304
305
305
307
312
316
316
315
320
320
320
324
329
332
331
334
339
341
347
352
356
361
363
369
373
376
379
383
384
380
378
373
367
356
343
333
324
315
307
304
302
297
295
295
295
291
291
294
295
294
295
298
298
299
298
299
300
300
300
299
298
302
302
301
301
301
302
300
301
302
302
302
300
301
302
304
305
306
306
304
303
305
305
305
306
304
303
303
307
308
311
310
313
315
320
327
329
327
326
326
321
311
304
299
298
299
298
299
300
298
292
282
270
271
311
384
469
532
519
423
346
306
284
279
286
295
298
298
300
299
300
302
303
304
303
304
307
310
312
313
315
316
317
322
326
328
329
332
335
339
344
350
354
356
362
365
364
366
367
364
353
343
335
325
312
305
296
289
283
282
282
279
280
280
282
279
279
283
282
279
281
284
283
282
284
287
288
287
288
288
289
290
291
290
291
291
292
291
293
295
295
294
295
295
296
295
294
296
296
296
296
299
301
303
306
309
315
321
325
326
322
320
317
307
295
293
295
293
293
296
294
291
289
280
267
264
298
368
455
526
532
445
356
309
285
274
277
289
296
295
293
298
300
300
302
304
307
307
310
314
315
317
319
321
324
328
332
334
336
340
347
351
353
358
364
369
372
375
379
378
374
372
364
352
340
330
320
309
300
295
293
287
285
284
283
280
282
285
283
282
284
286
283
282
286
287
289
289
290
289
290
291
291
293
292
292
292
290
290
291
292
292
292
291
290
292
292
293
297
299
300
302
303
306
308
309
313
320
323
325
322
320
316
302
296
294
292
291
291
290
291
291
286
274
261
264
301
376
463
532
531
438
355
309
283
275
281
294
300
298
294
295
298
297
296
297
299
299
304
307
310
313
318
315
313
317
324
329
331
338
345
347
351
359
362
367
368
371
372
370
367
364
355
344
334
324
314
303
297
291
287
284
285
286
283
283
285
283
283
287
290
288
287
292
296
294
293
293
292
291
291
291
292
295
296
297
297
296
299
302
300
298
297
299
298
297
300
299
295
297
297
29903
304
302
308
317
323
322
317
314
312
303
294
292
291
294
293
291
289
291
289
281
270
263
284
344
423
493
509
437
356
307
282
275
281
292
302
305
312
312
303
304
304
301
302
303
303
309
314
314
315
312
316
318
325
332
337
334
335
340
344
348
351
355
359
364
367
367
364
356
351
341
330
323
313
297
292
291
289
285
281
281
280
280
281
278
277
277
277
275
279
287
290
289
287
287
288
288
289
291
294
295
293
294
295
294
295
294
294
293
295
295
294
292
297
296
295
295
297
298
297
301
302
303
299
310
315
320
318
317
317
310
297
294
293
293
295
297
297
295
292
286
277
268
279
329
401
478
514
473
387
331
300
283
279
287
296
299
294
293
294
293
298
301
303
302
302
308
311
311
313
315
316
313
320
324
326
330
334
334
338
346
352
354
355
358
360
359
359
355
350
345
335
323
314
304
298
292
289
287
285
283
283
284
286
285
284
286
286
283
284
287
293
295
292
293
294
293
294
297
295
294
295
295
294
295
296
297
298
294
298
301
300
297
296
297
295
295
299
302
300
301
302
300
301
306
310
312
312
316
324
329
329
328
325
320
310
301
296
296
298
299
300
299
298
295
287
273
272
306
378
465
529
524
438
367
326
302
290
287
296
301
300
297
298
298
298
302
304
304
302
305
308
310
311
314
315
315
318
323
326
328
334
337
338
341
347
351
353
356
360
362
365
363
358
350
342
332
324
315
306
300
294
293
289
289
287
287
286
286
285
286
287
290
289
288
288
288
291
293
295
293
295
297
296
295
297
296
295
295
299
299
297
298
300
302
293
297
302
302
300
300
301
300
301
300
300
300
302
302
300
299
303
305
304
302
303
306
304
300
301
301
301
302
302
304
302
302
302
304
300
303
305
305
306
307
307
309
308
307
308
307
309
310
311
309
311
311
308
303
299
306
313
312
309
308
310
311
309
309
313
314
315
317
319
322
327
332
333
330
333
334
331
329
326
324
315
310
308
313
309
309
308
303
291
279
283
324
396
485
549
537
449
376
335
310
299
299
306
306
308
308
306
305
307
307
309
310
311
312
316
316
320
323
324
325
325
325
331
335
338
342
349
352
352
355
359
363
370
371
372
370
369
368
363
356
347
336
326
319
311
304
300
296
292
290
289
288
288
288
288
287
290
291
290
291
295
294
291
291
292
295
291
290
295
296
294
294
292
293
294
294
293
294
298
299
298
295
297
297
296
292
294
297
297
297
297
297
297
297
298
297
295
295
298
298
296
300
301
299
298
299
300
300
300
301
299
298
300
302
304
301
303
304
304
303
304
305
305
307
310
310
312
320
327
328
327
328
330
329
328
328
325
322
315
311
307
306
307
308
309
307
300
290
278
282
325
404
490
548
527
437
368
330
305
295
297
309
310
306
303
305
303
306
309
312
313
312
315
317
320
322
327
329
330
333
337
340
341
344
348
354
357
362
366
370
373
374
377
380
379
376
370
361
353
344
333
323
315
310
307
302
299
299
296
295
295
297
296
298
297
295
294
296
299
300
301
301
303
301
302
302
302
305
305
303
303
303
307
307
305
303
306
309
306
305
307
307
303
301
302
302
301
304
306
308
305
308
307
303
302
304
301
303
302
303
304
304
305
305
301
306
308
306
304
305
309
311
317
322
323
324
323
323
324
322
323
325
319
310
302
299
300
298
300
301
300
298
287
275
275
308
371
443
488
466
387
329
297
278
277
289
301
308
308
307
309
309
309
308
309
312
313
315
318
320
321
324
327
330
334
336
336
338
341
345
351
356
360
364
364
365
368
371
370
367
365
361
350
338
332
323
315
305
305
301
296
294
293
293
292
295
297
297
294
293
295
297
296
299
299
295
295
299
300
299
301
304
306
305
303
303
305
302
303
308
308
307
306
308
309
308
306
310
310
308
308
308
305
308
307
306
305
305
304
301
306
309
308
307
309
310
307
307
310
311
309
308
310
314
312
312
318
322
323
326
330
331
328
326
326
325
320
317
314
309
307
307
307
306
306
305
299
292
295
332
385
435
460
431
366
323
297
285
286
296
307
309
309
308
311
309
309
310
311
312
313
315
318
319
320
322
323
326
330
333
331
334
337
340
343
349
350
351
355
363
363
360
357
356
354
348
343
335
326
317
312
308
304
299
299
299
297
293
296
296
294
296
298
296
297
296
296
296
295
296
296
297
299
299
300
298
299
301
300
299
301
302
302
302
302
303
300
301
304
303
301
300
301
303
300
300
301
304
302
305
305
305
303
303
304
301
302
303
304
302
303
302
301
300
302
303
301
300
301
303
300
301
303
303
300
302
303
304
307
309
308
308
313
316
320
320
322
324
323
321
322
321
319
314
309
304
299
301
304
304
303
297
287
279
287
330
391
455
489
457
380
330
308
298
297
297
302
302
300
298
300
298
298
302
303
303
300
305
310
309
308
312
315
314
318
321
323
324
326
330
331
334
339
341
343
345
348
351
350
352
352
349
343
335
328
321
311
306
302
297
291
290
290
287
288
288
290
287
289
291
290
288
289
291
293
292
294
295
295
297
300
299
297
299
299
300
300
300
301
300
300
300
303
301
301
302
302
300
300
303
303
301
300
300
301
300
301
304
304
304
303
303
301
300
302
303
302
302
304
301
303
305
306
304
303
303
304
302
302
302
305
304
304
304
305
305
305
304
305
307
306
305
304
306
306
307
308
309
310
314
320
322
324
324
324
324
324
321
321
321
318
312
307
304
305
305
306
306
301
293
281
281
319
393
475
529
513
433
368
331
314
302
299
299
301
301
300
297
298
300
303
304
306
307
305
308
311
314
313
318
320
322
322
325
328
330
333
337
341
342
349
356
357
359
362
364
366
365
365
361
352
342
333
324
316
309
304
299
295
293
292
290
290
290
290
292
294
295
297
295
296
298
300
298
300
301
299
301
302
304
302
304
306
306
304
306
308
305
303
305
307
306
305
304
304
302
304
306
306
307
306
307
306
304
304
305
304
303
303
307
307
307
306
304
303
305
304
303
305
306
306
304
307
311
311
311
318
322
325
323
319
324
326
327
325
327
323
317
307
306
311
312
308
307
309
304
291
280
289
334
408
491
538
502
414
354
320
300
301
306
313
315
314
313
313
315
315
315
316
321
322
321
321
323
326
328
329
333
333
334
339
344
346
350
354
357
359
360
366
369
370
370
371
372
366
362
354
342
329
322
316
309
303
297
295
291
292
291
291
291
290
289
289
291
293
294
292
293
295
293
292
293
295
296
292
296
299
298
295
295
296
294
294
297
297
297
296
299
302
301
301
298
296
296
298
300
301
299
300
302
300
302
303
303
300
299
300
299
299
300
305
307
306
306
312
315
319
321
319
318
320
321
325
322
315
309
301
298
299
301
306
307
305
299
287
276
284
321
384
447
476
446
373
327
298
279
284
292
304
304
302
302
302
301
303
305
302
306
310
309
310
314
316
317
319
321
324
324
328
330
332
332
339
346
345
342
349
354
357
359
358
354
350
346
339
332
325
319
315
308
299
297
300
297
292
293
295
293
295
296
295
293
295
295
296
294
298
301
296
296
299
299
299
302
304
303
298
299
303
307
307
307
309
309
308
311
311
309
307
309
309
308
308
310
311
309
310
310
309
309
310
309
311
312
313
312
309
310
312
313
311
313
316
315
319
322
323
324
327
328
328
325
325
323
319
314
309
307
304
306
310
308
303
301
294
288
307
356
416
463
467
411
350
317
299
294
295
300
306
307
306
304
305
305
305
307
309
308
306
308
310
312
311
314
315
316
316
321
324
327
329
331
334
336
339
341
346
347
350
351
352
348
347
343
334
326
319
311
305
302
297
291
287
287
286
286
283
283
284
284
283
288
290
288
289
289
288
286
288
290
292
292
291
291
291
288
289
291
289
288
290
293
292
292
294
292
291
291
293
293
291
294
293
293
293
292
294
294
294
298
300
300
300
301
300
299
299
300
302
302
302
304
301
302
303
303
301
301
301
302
306
307
310
311
316
318
318
321
322
320
320
320
320
320
313
309
304
301
301
302
303
302
296
288
279
282
323
388
454
486
458
386
335
309
299
297
298
301
304
301
299
299
299
300
300
302
304
306
305
309
311
311
314
318
321
320
323
328
329
329
333
334
341
342
346
349
351
353
357
358
356
358
356
350
340
332
325
317
307
303
301
297
293
291
289
286
287
288
289
289
290
291
292
292
292
292
293
295
296
295
295
294
296
298
296
299
299
298
299
300
300
299
299
299
300
301
300
299
298
299
298
299
299
300
300
302
301
300
300
300
300
301
303
303
301
302
304
304
305
307
308
307
309
309
309
308
309
310
313
316
319
321
324
328
330
330
329
330
328
328
327
328
323
316
309
310
311
309
309
309
305
295
285
293
336
408
485
527
498
411
352
326
311
305
306
311
311
311
311
311
308
310
313
313
315
320
322
321
323
325
328
328
331
338
340
340
342
346
349
354
358
361
364
371
374
377
378
381
381
379
372
367
360
351
341
331
323
315
311
308
308
304
303
302
301
300
304
304
302
301
303
303
300
303
306
304
303
305
305
307
308
309
310
309
305
304
304
307
308
307
307
305
305
307
306
308
309
309
308
308
307
307
305
306
307
306
304
305
305
305
305
306
307
304
305
308
310
310
312
315
321
322
327
327
328
327
326
326
323
320
316
309
301
305
307
304
304
303
298
291
282
282
310
374
453
515
514
433
362
321
294
285
293
309
314
313
311
310
308
312
317
319
317
320
323
324
325
329
328
326
329
336
341
342
346
350
353
357
361
365
368
369
374
378
378
379
380
377
372
363
352
342
331
323
318
310
303
301
300
294
293
295
294
290
294
296
295
294
294
294
295
296
298
302
299
298
299
301
303
306
306
306
306
305
303
300
300
302
303
301
303
303
303
306
306
303
301
299
301
302
301
303
304
306
304
303
305
309
311
315
314
314
317
323
324
322
326
326
326
323
322
322
318
309
300
301
304
305
306
305
300
295
284
280
306
371
443
491
482
408
348
312
289
283
292
302
311
309
307
305
307
311
313
310
308
310
310
314
320
322
318
320
321
325
324
329
334
337
338
343
347
351
357
358
362
360
365
364
361
356
353
348
339
326
317
311
302
294
293
291
287
285
287
287
289
292
290
287
287
291
292
292
292
294
294
292
290
293
298
302
299
301
306
306
304
305
304
304
304
308
309
308
306
306
306
306
305
306
308
307
305
309
309
306
306
308
311
311
308
308
308
311
315
315
314
319
323
324
322
326
327
327
324
322
319
314
307
304
308
307
306
306
308
301
293
286
290
324
385
449
485
462
388
342
314
298
294
301
310
312
308
306
314
319
316
314
311
314
318
316
316
320
323
323
325
327
329
331
336
336
336
341
349
352
352
354
357
360
362
366
367
364
363
357
351
341
332
323
315
309
304
303
302
298
295
294
295
295
295
297
293
294
298
296
294
298
296
294
297
296
295
295
296
299
298
297
300
301
298
298
300
302
303
302
304
302
299
300
303
304
301
301
302
302
298
297
299
299
302
303
303
303
304
310
319
319
317
316
318
315
312
305
299
294
297
297
297
297
299
296
289
278
272
288
336
402
462
484
437
366
323
299
289
291
297
301
298
298
298
299
302
303
303
304
303
304
305
306
307
310
310
313
313
315
318
320
323
330
334
335
339
342
349
352
352
354
357
356
354
351
347
341
332
320
312
304
296
295
292
287
284
283
283
283
284
286
289
287
286
288
290
290
291
291
289
290
290
289
288
291
292
294
293
291
295
297
293
293
296
294
293
295
295
293
293
295
294
293
296
298
295
295
295
298
298
301
302
304
307
308
311
318
319
323
324
323
320
317
308
300
296
297
300
300
300
299
298
293
285
276
286
334
410
487
520
480
397
342
312
298
295
299
300
301
302
302
302
304
304
301
302
306
307
307
309
312
314
316
320
321
322
325
328
333
337
341
345
350
351
354
360
365
368
368
367
367
366
361
351
341
331
323
314
307
302
299
296
293
293
293
292
290
291
292
291
293
296
294
293
295
297
296
296
298
300
299
299
298
300
296
297
297
297
299
298
298
299
299
301
300
299
300
299
301
301

301
302
302
303
304
303
301
302
304
303
302
305
308
308
312
314
320
324
327
329
329
328
327
319
310
301
300
299
297
299
302
302
296
290
282
273
282
336
418
500
539
496
402
342
310
292
287
290
299
303
302
300
302
302
300
302
303
304
305
308
310
311
312
315
318
322
324
329
331
335
339
340
345
348
353
358
363
366
368
371
373
372
368
362
350
341
332
320
310
303
298
291
287
287
284
282
286
287
287
285
286
287
289
288
290
290
291
290
290
290
290
291
293
296
294
294
294
295
296
298
299
297
296
298
299
298
298
298
299
297
296
298
300
298
297
299
299
297
299
299
298
302
304
306
307
310
315
320
325
328
328
325
323
318
308
301
298
301
303
301
301
301
301
294
282
275
285
336
416
503
546
502
406
343
305
290
287
292
300
303
302
297
299
302
305
304
304
305
308
311
313
315
315
316
321
325
329
331
333
339
343
347
351
356
360
364
369
373
377
379
379
374
369
362
352
340
331
320
310
303
297
291
286
284
281
279
279
278
278
281
283
286
284
282
283
288
289
289
289
291
291
290
294
298
298
297
297
298
298
297
301
304
301
302
302
302
302
305
306
304
304
304
303
303
304
307
305
303
304
305
309
308
312
313
315
319
325
327
328
323
321
316
303
299
299
298
296
297
299
300
298
294
287
276
274
309
374
448
499
488
409
338
299
279
278
286
299
308
309
306
304
305
304
306
309
312
313
316
319
322
322
323
325
328
332
337
341
340
344
349
354
355
361
366
368
371
375
379
379
375
371
367
358
348
337
329
321
315
310
302
299
299
298
297
296
297
295
294
296
298
298
300
300
300
299
303
306
304
300
300
304
303
304
306
304
304
304
306
306
306
305
305
304
303
302
303
302
300
302
303
302
299
303
305
302
304
306
305
304
304
304
305
304
307
306
306
304
308
310
308
311
315
318
316
320
325
330
329
327
326
325
318
312
308
305
306
305
304
304
304
301
296
287
286
310
362
428
477
473
401
338
306
285
279
287
298
305
304
304
303
302
303
309
313
308
309
312
316
317
319
320
320
323
329
330
332
335
338
341
345
349
351
352
354
359
362
364
363
365
364
359
353
345
337
326
320
314
307
301
300
300
298
296
297
296
292
295
298
298
298
299
300
299
298
298
299
300
300
301
302
302
302
303
302
299
302
303
303
302
303
302
301
296
295
304
306
305
302
301
303
304
303
303
304
302
303
304
304
303
305
305
304
301
302
305
307
306
305
306
306
309
312
312
314
320
324
323
322
321
318
313
307
304
302
299
300
301
301
299
300
294
283
274
291
338
407
473
499
452
373
327
302
292
293
301
307
306
303
304
306
305
306
307
306
307
309
311
311
312
315
315
317
318
324
326
327
329
334
337
336
341
345
345
348
354
355
356
356
358
357
353
345
338
330
318
310
306
301
296
293
292
292
291
291
291
292
292
292
293
293
293
296
297
295
297
298
296
294
296
297
298
298
298
301
300
301
302
302
303
303
305
304
303
303
304
304
303
304
305
303
303
302
303
303
304
304
302
300
300
301
299
300
301
300
301
302
300
300
300
302
300
299
300
298
300
300
301
301
301
301
301
300
302
302
301
300
298
300
302
302
300
300
302
303
302
304
305
305
304
305
306
304
306
308
308
305
306
308
310
310
313
314
313
314
318
320
319
320
324
330
327
327
325
326
324
323
317
308
304
304
305
304
304
304
299
288
276
282
324
399
480
531
510
420
352
321
303
296
297
302
301
299
297
298
298
299
302
303
303
305
309
310
313
316
319
320
322
324
326
330
335
338
341
347
351
354
358
364
369
374
377
380
383
381
377
374
368
361
351
344
335
324
318
312
307
302
301
298
297
296
295
295
295
297
300
299
301
302
303
303
303
305
305
305
309
312
309
307
307
310
312
312
311
308
307
307
309
308
308
310
311
310
310
312
312
313
309
310
312
312
310
311
313
308
305
307
309
307
310
315
313
310
312
312
310
310
310
313
312
311
313
314
312
313
316
317
314
316
318
319
320
325
330
330
332
335
336
334
337
338
334
328
323
318
315
315
315
313
314
316
311
298
283
285
319
389
471
531
522
434
359
317
294
287
294
306
313
313
313
311
311
311
316
318
318
317
317
317
319
321
325
327
328
332
333
335
338
342
344
347
351
356
361
362
368
370
370
368
369
368
362
354
351
343
331
322
312
304
299
298
298
294
293
295
295
294
292
292
293
293
296
296
298
296
299
299
301
299
301
300
295
296
299
302
301
298
301
300
300
301
302
298
298
301
300
298
297
300
302
301
301
301
302
300
301
300
300
298
302
303
301
299
301
303
303
303
305
310
311
312
315
317
316
319
321
319
320
322
321
311
305
303
302
300
304
305
302
299
300
294
281
282
316
373
434
469
450
378
326
296
280
279
287
300
309
311
309
312
311
309
310
312
314
314
316
317
321
321
322
326
329
329
331
334
335
339
342
348
352
354
356
359
360
363
363
363
364
363
357
347
337
328
320
313
309
303
296
296
296
293
291
292
294
292
291
292
293
292
291
296
293
291
293
296
295
293
293
294
295
295
297
297
296
295
297
299
297
297
298
298
295
294
295
296
295
298
300
299
295
298
299
298
297
296
297
297
299
297
298
298
300
301
302
303
306
307
307
312
316
318
316
314
311
310
304
299
295
292
294
297
299
298
295
290
284
275
277
311
369
433
472
455
383
329
301
285
282
289
297
300
299
298
298
300
300
302
302
303
305
306
306
310
313
314
316
317
321
322
325
327
331
334
337
341
344
348
349
351
356
358
356
356
354
351
346
338
330
321
314
307
302
298
293
291
288
285
286
285
283
283
283
283
284
286
289
289
285
287
290
290
289
290
289
290
293
297
295
290
294
297
296
293
295
295
294
293
299
299
295
297
298
298
297
298
299
300
297
297
297
297
296
298
298
295
296
298
299
296
295
300
299
297
299
300
301
300
301
301
303
303
303
306
305
308
308
309
310
313
314
317
321
325
326
324
322
323
322
318
312
306
303
301
303
302
302
300
298
293
283
275
293
347
422
491
509
452
366
321
302
291
288
294
299
298
297
297
298
295
296
299
302
302
304
306
307
311
313
317
319
322
326
329
332
335
337
340
345
351
353
357
363
368
371
371
372
374
373
369
364
353
344
336
328
320
310
304
301
298
293
293
293
291
291
292
293
291
294
293
293
296
296
298
299
297
302
304
303
300
302
306
304
304
305
304
304
306
307
306
305
306
306
305
303
304
305
304
305
308
308
308
308
309
310
310
309
310
313
309
308
309
310
310
309
310
309
311
313
313
310
309
318
325
329
331
335
336
334
329
328
328
324
314
309
306
306
305
304
304
303
303
298
286
272
286
342
426
509
550
503
403
338
304
286
284
294
305
307
300
299
302
304
303
305
307
307
309
311
313
314
315
319
323
325
330
333
335
337
343
350
353
356
363
369
370
372
376
378
377
376
375
372
361
350
340
326
317
311
308
300
294
288
290
292
291
291
290
290
292
296
296
294
294
297
295
297
299
302
299
297
298
301
304
302
302
303
306
307
305
305
308
305
304
304
306
306
307
305
304
304
303
306
307
305
303
305
309
308
306
307
310
315
317
320
320
324
327
329
331
328
329
325
317
309
305
307
309
310
309
309
307
305
297
289
287
317
380
450
496
485
405
341
307
289
286
296
309
317
320
315
313
313
314
315
321
324
321
321
326
330
325
326
330
332
333
338
341
343
344
351
353
355
360
363
366
365
370
375
378
372
368
364
356
345
335
328
315
310
307
303
295
291
290
291
294
296
296
294
293
293
293
292
292
293
298
298
299
296
296
299
302
300
298
302
305
303
300
301
305
307
307
307
308
305
305
307
305
304
306
306
306
308
307
306
307
306
307
308
307
308
310
313
314
314
311
315
322
324
324
325
323
323
322
316
309
306
304
303
304
305
305
303
305
299
289
285
301
345
402
452
464
414
347
310
291
285
289
298
308
313
310
311
314
313
312
312
314
313
318
321
322
321
323
325
329
329
331
334
333
335
343
348
349
353
357
362
366
368
367
366
365
366
363
357
349
341
333
323
318
311
307
303
298
299
299
297
299
299
295
294
296
299
297
296
297
297
296
297
298
298
297
298
299
299
299
299
300
300
303
301
299
300
300
297
298
298
298
299
300
300
299
298
297
300
301
302
303
304
303
302
301
302
303
303
310
315
313
313
318
322
325
324
322
320
315
308
306
304
302
304
305
304
304
303
295
288
283
296
340
401
457
475
429
359
319
298
289
292
300
305
305
305
304
303
301
305
308
309
309
309
312
316
316
318
320
319
319
324
325
325
329
332
337
338
341
344
350
353
355
356
356
356
356
351
344
338
328
321
312
308
302
295
288
288
286
282
281
279
282
282
283
284
284
284
284
285
285
286
288
288
289
291
290
292
292
294
295
294
295
294
293
293
292
294
294
293
294
291
292
292
294
296
295
294
293
292
295
293
292
293
292
292
292
293
291
293
295
294
292
295
298
295
295
296
295
295
298
298
295
295
298
296
295
296
298
301
300
301
303
304
304
307
308
312
316
322
322
319
317
321
320
314
307
304
303
300
301
303
303
302
297
287
279
286
333
406
479
517
481
394
334
307
299
298
299
303
304
303
301
305
306
303
306
309
313
313
315
320
321
319
323
327
329
329
332
336
337
341
344
351
354
360
364
367
371
374
378
379
379
380
377
371
364
355
344
332
326
317
309
304
299
296
294
293
294
295
292
295
296
295
294
297
298
299
299
302
300
300
298
301
303
301
302
301
302
300
302
304
304
302
302
302
302
302
304
304
299
299
300
301
300
301
301
299
299
302
302
301
305
307
305
303
306
309
310
308
309
312
310
311
311
312
313
314
315
316
315
318
321
322
325
330
335
337
340
341
340
335
337
335
329
320
316
312
309
309
311
315
312
309
303
293
286
315
384
469
536
542
461
374
325
301
292
295
306
316
316
312
313
314
313
311
312
313
315
317
320
325
323
327
328
331
331
334
338
344
346
350
354
358
363
369
375
377
379
381
384
387
388
384
377
364
356
343
331
324
316
309
302
300
296
294
291
291
290
290
289
290
293
294
290
288
290
291
294
295
296
298
300
297
298
299
300
301
301
299
299
300
300
302
302
303
303
303
304
301
301
304
305
303
305
307
305
304
304
305
304
302
304
306
307
308
310
314
316
316
319
321
322
325
330
329
327
327
321
312
304
305
308
308
309
310
308
302
298
292
286
306
362
430
481
484
421
351
311
287
281
289
298
308
312
311
309
311
314
311
314
317
317
316
317
322
324
326
327
332
333
333
336
343
346
346
349
352
354
359
365
368
369
372
372
367
362
360
354
344
336
328
320
312
305
301
300
298
294
293
293
293
292
292
290
292
296
295
296
295
294
294
297
300
299
297
294
297
305
308
309
306
310
309
311
313
315
316
312
310
310
312
316
316
316
316
314
315
318
316
312
312
315
317
315
316
317
318
321
321
322
321
324
327
330
333
337
336
334
332
331
328
319
317
314
311
312
312
313
312
309
309
303
294
298
329
384
438
464
439
370
323
300
287
286
295
306
313
312
309
311
312
310
312
312
310
311
315
318
317
317
321
323
322
326
328
332
334
337
341
343
347
351
356
358
359
361
362
360
362
361
358
346
337
332
325
316
310
304
298
294
292
290
289
289
290
294
289
289
290
289
287
288
290
289
290
291
289
287
289
289
290
289
289
289
288
290
291
291
289
292
291
290
291
292
294
294
291
292
291
289
288
289
292
289
289
292
294
295
295
293
294
295
293
295
293
294
296
296
298
298
299
300
300
304
305
306
307
309
312
313
314
312
312
309
301
296
295
293
293
293
295
296
296
288
280
278
300
355
418
472
476
410
339
302
288
284
287
292
296
297
297
298
296
294
296
299
301
300
301
303
304
306
310
310
310
313
314
315
320
325
331
334
337
341
345
349
353
358
361
360
362
364
361
355
348
339
330
320
314
305
296
290
287
286
284
284
285
287
284
285
286
287
286
287
288
289
290
292
292
289
290
293
294
292
293
295
294
293
294
295
294
294
295
297
296
298
297
297
297
298
298
295
294
297
29298
298
299
300
298
298
301
302
301
301
300
300
302
303
303
305
306
306
308
308
306
305
306
305
308
309
309
310
311
311
315
321
324
329
331
331
329
327
327
326
321
312
306
303
303
304
307
308
307
300
290
279
281
318
389
471
530
524
439
359
318
300
295
296
301
304
304
301
301
303
302
301
302
305
306
307
310
314
316
318
320
324
324
327
333
338
340
345
349
356
362
366
370
372
374
380
384
383
381
380
377
366
357
347
337
325
317
309
303
298
296
295
293
292
294
294
292
292
293
296
293
292
294
297
297
295
295
295
295
295
296
296
295
295
298
298
298
297
299
299
298
299
299
300
300
302
301
301
301
301
298
299
298
299
301
301
301
300
300
302
306
306
307
306
305
308
313
317
317
321
328
333
333
331
330
327
326
325
316
308
304
307
308
306
308
307
306
301
295
283
282
316
384
464
523
511
425
351
309
287
284
295
306
317
319
316
314
317
316
320
323
325
325
324
327
332
335
335
337
337
337
340
345
350
349
348
353
360
366
368
371
371
371
378
379
380
376
370
364
357
344
331
323
314
306
303
300
295
294
294
295
290
292
293
294
293
293
294
295
293
295
297
297
297
300
300
300
302
303
301
299
299
297
299
301
304
305
303
304
301
303
303
304
302
300
300
305
306
302
300
301
302
300
301
301
300
299
301
301
302
304
308
309
312
312
315
319
322
325
323
319
319
319
313
303
303
302
301
301
303
301
300
299
295
285
281
306
364
432
479
475
404
338
300
278
275
286
294
303
303
300
300
301
301
300
303
306
305
304
309
313
316
316
318
319
319
321
325
329
330
335
339
343
346
352
356
358
357
364
367
366
364
358
350
340
335
328
321
312
306
302
298
295
293
291
289
290
292
291
291
289
290
291
292
291
293
294
292
293
297
296
296
297
298
298
300
301
301
298
299
300
300
299
300
300
297
297
298
298
298
299
298
300
301
302
300
299
299
300
300
299
301
301
303
304
303
304
305
309
311
310
308
309
313
314
317
320
324
324
322
322
322
315
306
301
301
304
303
303
303
302
302
294
283
279
306
366
437
496
497
428
353
312
293
286
285
294
302
300
295
295
296
294
298
301
302
301
302
305
306
306
311
313
315
317
320
322
325
327
332
336
338
344
349
354
357
361
366
367
365
365
363
357
349
341
331
321
312
304
300
294
292
292
290
286
290
290
288
288
292
294
293
294
293
296
295
296
296
298
298
299
298
297
297
301
304
301
301
303
305
305
303
304
305
304
306
307
306
305
307
309
309
310
309
309
309
309
308
308
310
310
311
311
311
313
312
309
313
313
313
310
311
312
311
313
313
312
310
312
314
315
316
317
317
318
322
325
325
328
332
335
336
333
333
331
324
313
309
310
307
308
309
309
305
303
298
285
284
322
397
481
540
535
448
365
322
302
291
292
302
306
306
303
305
303
304
302
302
309
316
317
316
319
321
321
325
329
331
334
335
340
343
348
354
362
367
369
372
378
385
387
388
387
384
380
378
372
361
350
339
325
316
310
305
303
296
292
292
293
291
292
292
291
291
293
294
294
295
296
297
296
300
300
301
301
300
302
299
301
305
306
302
302
304
305
304
307
306
303
302
304
305
304
304
304
306
305
302
302
303
300
301
304
305
302
302
304
304
304
304
302
299
302
304
306
305
306
311
314
312
314
318
321
327
331
333
330
327
326
323
312
307
304
303
304
306
305
301
301
295
285
276
287
338
414
489
527
480
38325
296
280
280
289
302
305
303
302
304
305
308
306
306
307
309
309
313
316
317
316
320
322
325
328
333
337
340
344
347
351
357
361
362
368
372
372
373
373
370
363
355
348
336
324
318
311
306
300
300
297
295
292
293
294
294
296
298
297
295
296
294
295
295
298
299
300
299
299
299
300
300
301
303
301
303
303
303
302
300
300
303
301
304
305
302
300
300
302
303
302
301
302
301
303
305
303
304
304
305
308
305
303
306
306
307
309
313
311
312
317
321
323
325
323
320
321
318
309
302
301
303
303
300
301
301
300
296
288
280
288
329
395
461
489
452
373
323
295
281
282
290
300
306
305
303
302
304
305
305
308
311
314
313
314
316
317
321
323
324
326
329
333
334
336
341
345
347
350
355
358
361
365
366
366
366
366
362
352
343
334
327
316
307
303
298
292
288
286
287
284
285
284
284
283
284
286
285
285
287
288
288
289
292
291
292
291
293
294
293
292
294
295
295
295
296
294
294
293
295
297
299
299
297
298
300
300
298
297
300
301
299
301
304
302
302
303
304
303
304
308
307
305
308
309
308
309
313
315
318
321
327
327
326
328
326
322
311
304
302
301
303
305
305
304
300
294
285
278
298
355
428
490
502
442
362
314
293
287
288
294
303
303
298
300
301
302
301
304
306
306
308
310
311
313
315
320
324
326
328
332
336
337
342
346
348
350
354
360
362
366
371
373
374
373
371
367
358
345
335
326
315
310
304
297
293
292
290
289
289
290
290
288
289
291
292
292
293
296
295
295
298
302
301
301
302
301
302
306
307
305
305
306
305
303
304
306
306
304
304
305
306
305
304
305
305
303
305
309
309
309
311
313
309
308
309
309
308
310
311
312
312
312
315
316
318
320
322
324
330
336
336
333
332
331
326
315
310
308
307
308
310
309
308
307
301
289
280
296
351
437
521
556
501
405
346
315
301
296
300
309
311
306
304
307
308
310
311
311
313
314
318
320
322
325
325
326
330
337
338
335
339
346
352
354
360
367
370
373
378
379
381
382
380
374
365
356
350
340
327
319
312
304
299
297
293
291
292
294
294
292
293
292
290
291
296
298
300
299
299
300
301
301
300
302
302
304
305
302
300
304
307
307
305
305
307
307
305
306
307
308
309
308
306
302
304
304
305
304
304
306
310
313
312
313
316
321
324
327
324
320
314
305
302
300
298
297
298
301
300
296
294
284
275
274
305
367
442
491
476
398
333
298
278
280
287
300
305
306
305
304
305
304
304
305
306
306
311
314
318
319
320
320
323
327
331
335
339
341
344
346
348
354
358
362
366
370
372
373
373
373
367
355
348
340
332
320
313
307
301
296
294
294
294
293
292
293
292
291
295
293
291
293
296
297
295
297
299
297
297
298
301
297
296
298
299
298
301
300
298
298
300
301
298
297
299
301
299
299
301
300
299
301
304
302
300
299
301
299
299
301
305
307
308
312
316
318
321
320
317
312
307
298
294
294
292
294
295
298
296
295
290
280
274
288
340
418
488
508
455
372
325
296
286
289
296
302
304
303
304
304
304
306
305
308
309
312
314
317
320
321
321
325
326
329
329
335
340
342
350
353
358
360
368
373
375
377
379
379
376
373
369
358
348
342
333
321
309
302
297
292
291
291
291
288
288
291
292
290
292
293
293
294
296
296
293
295
297
299
298
299
303
304
302
303
304
303
301
302
304
303
303
304
307
306
304
306
308
306
309
312
311
308
312
313
313
311
312

318
319
320
327
331
336
334
332
329
327
317
308
307
309
307
307
307
308
306
303
294
285
284
314
384
464
517
504
420
348
306
282
281
294
305
308
305
303
305
305
305
307
308
308
310
313
314
314
319
321
321
324
327
330
332
336
339
340
343
350
357
360
364
367
370
373
371
371
371
367
360
351
342
330
319
312
306
298
296
292
288
288
288
290
287
287
291
292
291
291
292
292
292
294
294
295
295
295
296
295
296
297
297
295
296
297
300
300
300
299
299
301
301
300
301
300
300
302
302
304
305
306
311
313
314
319
327
331
329
325
324
319
309
301
301
302
302
298
299
302
299
296
285
276
280
321
398
480
527
501
411
342
305
287
287
293
304
310
308
304
306
309
309
311
315
319
318
319
324
327
328
331
333
336
337
341
348
352
353
359
364
367
372
376
382
385
389
394
394
392
388
382
374
364
353
343
332
324
319
313
308
307
305
303
302
303
302
302
303
304
303
303
303
304
304
304
304
305
304
302
304
305
304
306
307
305
303
304
304
305
306
307
306
304
303
302
302
301
303
305
305
306
310
315
314
315
324
330
332
329
328
327
322
310
303
298
298
300
300
300
301
302
300
287
276
280
320
395
484
545
527
428
353
313
290
285
292
305
308
306
305
306
307
309
307
309
309
314
316
316
316
318
322
326
329
334
338
340
345
350
353
353
361
367
373
375
379
382
383
384
385
380
371
363
355
344
332
323
313
305
302
301
297
296
294
296
297
294
295
296
297
294
296
298
299
296
296
298
299
299
301
298
296
299
302
304
304
303
302
302
300
300
301
300
303
304
302
299
299
303
303
303
302
302
304
305
305
309
314
319
320
322
318
313
305
297
292
293
295
295
294
295
294
293
288
275
266
278
330
405
478
509
460
370
314
283
272
275
281
291
294
293
293
295
297
296
294
297
298
298
299
300
300
301
306
309
312
313
316
321
324
327
332
334
335
341
346
350
353
359
359
357
355
353
348
337
329
321
310
299
294
289
285
280
278
278
277
276
279
279
277
278
280
283
280
279
281
283
281
282
282
283
280
281
284
285
286
288
289
288
288
288
290
289
289
288
288
287
288
289
290
293
292
289
289
290
291
292
291
291
293
296
298
299
302
304
304
306
311
315
317
318
317
315
310
303
296
295
297
299
298
297
297
295
286
277
268
283
337
418
496
523
468
385
336
305
292
291
297
300
302
301
301
300
302
304
305
306
307
311
311
310
312
316
317
320
324
326
328
334
337
339
343
350
351
352
356
361
367
369
370
371
369
364
359
353
342
334
326
318
308
302
298
295
289
289
289
289
288
290
289
287
288
290
293
293
295
298
298
295
297
299
298
295
296
298
298
299
300
300
300
300
301
303
301
301
302
301
301
299
300
300
301
301
302
301
302
303
303
300
300
302
303
302
303
305
304
304
306
309
309
306
306
308
311
314
314
317
322
326
326
324
322
320
314
305
301
302
302
300
302
303
302
298
289
278
279
317
390
474
536
527
440
364
322
300
292
293
301
305
303
299
300
302
304
304
307
310
310
312
315
317
320
321
323
324
326
330
334
338
338
344
350
354
357
363
368
371
374
379
382
381
380
377
371
361
350
339
328
317
313
307
301
299
299
297
293
295
296
295
293
294
295
294
293
295
297
296
295
297
300
300
302
303
302
299
300
299
301
300
302
303
301
303
304
302
301
301
302
302
301
303
305
304
303
302
304
303
302
303
304
303
303
304
306
305
305
307
310
308
309
309
311
316
317
318
322
328
331
330
325
323
323
316
307
304
303
302
301
301
303
301
299
291
279
276
304
372
461
534
541
458
368
321
296
286
289
300
306
304
301
303
303
304
306
308
310
311
315
317
318
319
323
326
328
330
333
335
339
347
352
354
358
365
370
374
376
383
386
387
387
388
384
375
366
356
345
332
323
314
308
301
299
295
294
293
294
293
291
292
294
296
295
297
300
299
297
299
299
299
300
303
303
301
303
306
305
305
303
303
303
302
304
305
303
301
302
301
298
299
301
301
300
301
302
301
300
301
303
302
302
303
304
302
303
305
307
310
314
316
317
320
327
330
330
329
325
323
312
304
301
299
297
299
302
304
302
298
289
275
274
306
376
464
538
545
459
368
320
291
281
285
295
300
300
298
296
297
297
299
300
301
304
305
307
310
313
316
320
324
326
329
331
334
338
342
345
345
348
360
369
374
375
377
382
382
377
372
366
357
345
332
324
314
306
299
294
290
287
286
285
282
283
283
285
285
286
286
285
288
287
288
285
288
289
289
288
290
291
291
293
294
294
291
292
295
294
293
294
294
294
292
292
292
293
294
294
293
293
295
296
294
294
295
296
298
296
298
299
299
302
307
308
310
319
324
325
324
326
323
318
308
300
295
292
292
294
293
290
290
288
278
264
264
299
372
461
535
535
442
355
309
283
272
278
291
297
292
291
291
291
291
294
297
298
299
303
304
305
308
311
316
315
319
323
327
329
335
340
342
346
352
358
362
369
374
377
377
379
380
374
366
356
344
332
321
310
299
291
288
287
284
279
280
280
280
281
280
281
281
283
287
287
287
289
289
291
292
295
295
295
294
296
297
296
298
298
299
299
300
300
300
299
301
300
300
301
303
301
300
302
303
302
301
302
302
302
302
303
304
304
306
309
310
313
316
319
325
330
336
336
333
329
328
317
305
301
302
303
301
303
305
304
299
290
277
274
310
385
473
541
539
444
358
312
287
282
288
297
306
305
304
303
306
309
307
306
307
311
312
314
316
317
319
324
327
328
332
337
340
343
348
353
356
358
365
371
375
377
381
381
379
377
373
366
352
338
328
319
308
302
296
293
290
287
288
286
286
287
287
286
286
287
288
288
288
291
294
294
296
295
294
295
294
296
295
296
298
297
297
298
296
295
295
299
298
294
297
298
298
297
299
297
297
297
298
296
298
298
299
300
302
304
307
311
312
313
320
324
325
330
331
327
323
316
307
301
300
301
304
305
305
304
303
293
281
272
284
341
424
502
529
468
376
322
291
280
284
293
300
303
303
298
299
302
303
304
306
308
309
307
310
314
317
318
322
326
329
332
335
336
337
341
348
354
356
361
365
369
371
373
376
373
373
369
359
348
339
327
317
310
305
302
297
294
293
293
292
291
292
293
294
294
294
294
295
295
294
293
294
298
298
295
296
299
299
299
299
300
299
298
300
300
298
297
299
301
298
299
300
301
296
297
299
301
299
300
300
299
301
302
300
299
300
301
305
304
306
313
319
323
325
323
319
317
309
301
297
296
298
297
295
296
296
291
281
270
269
304
375
464
530
521
434
358
316
291
283
285
293
297
300
298
298
300
301
302
300
304
308
310
310
313
314
316
319
324
328
330
334
337
342
345
348
354
360
360
363
368
369
372
376
376
371
365
357
345
334
322
311
300
291
284
281
276
274
274
273
269
271
271
274
273
274
277
277
275
275
277
276
278
281
281
280
281
283
286
285
284
284
284
286
287
288
287
288
287
286
287
289
290
289
288
291
290
292
292
292
291
294
294
295
298
300
300
303
309
317
319
318
314
316
312
300
293
294
291
291
292
295
296
292
288
279
266
269
308
381
467
520
504
416
344
303
283
280
286
294
298
298
296
297
298
301
303
303
303
304
305
308
312
315
316
319
321
324
327
330
334
337
345
350
352
352
358
363
369
372
374
376
372
372
367
356
345
337
328
320
312
308
308
300
295
298
299
299
299
300
302
300
300
303
305
301
303
305
306
305
305
309
308
313
315
314
313
315
315
316
314
317
321
314
313
314
317
312
318
317
320
317
315
318
318
317
318
319
319
321
322
328
330
329
327
327
325
327
339
342
349
348
343
340
333
326
320
316
319
321
324
326
324
323
315
305
293
292
335
408
480
518
487
405
350
323
304
303
307
311
317
321
318
315
319
319
321
325
324
327
327
322
323
330
336
344
345
344
346
354
358
355
355
362
367
370
372
377
378
379
385
388
388
382
381
374
366
355
347
336
326
322
319
317
313
314
317
318
316
315
315
317
314
313
316
320
319
315
312
312
322
325
326
323
322
325
326
323
322
324
326
325
327
330
331
326
319
320
323
328
326
324
324
327
325
323
322
326
325
327
329
329
329
328
335
341
343
342
342
342
340
332
321
319
318
317
319
318
318
319
315
303
289
285
308
366
442
508
521
456
388
342
312
302
301
305
314
313
312
310
311
318
316
312
314
319
322
325
321
322
327
329
328
333
332
333
340
346
347
349
353
359
362
364
369
373
377
378
381
379
369
360
352
343
333
327
318
311
307
309
304
299
289
288
301
305
302
298
299
301
300
297
297
299
300
300
303
300
299
301
304
303
302
307
307
306
302
301
301
301
303
305
304
302
304
302
306
306
305
301
302
304
308
313
308
309
313
321
326
325
325
323
315
308
301
297
296
299
301
300
301
299
294
285
273
272
298
356
434
492
494
423
356
314
288
281
288
295
299
296
294
295
298
299
302
302
298
301
306
309
315
313
316
315
319
324
325
324
328
332
332
336
342
346
350
356
360
360
356
359
363
357
352
345
336
330
319
311
306
301
297
293
289
287
291
292
294
291
290
290
293
293
289
291
295
299
298
297
296
299
298
300
301
299
300
299
298
302
304
299
303
301
298
299
301
302
302
302
302
302
305
309
311
309
307
310
315
319
323
323
323
317
306
297
298
300
298
300
297
293
293
291
290
281
269
284
326
387
449
468
419
347
312
290
278
283
297
300
300
304
299
292
294
303
307
305
306
306
307
310
313
315
314
316
320
322
322
321
326
332
338
340
345
342
340
345
353
356
357
352
352
348
344
338
328
317
312
308
300
295
295
299
298
296
292
293
289
291
293
296
296
294
297
298
298
302
305
300
297
301
301
298
301
305
307
301
305
306
305
300
299
303
309
308
307
310
307
309
310
313
315
317
317
322
323
326
328
329
325
317
310
308
305
305
308
306
301
301
302
304
300
294
302
340
391
433
445
401
341
308
289
284
294
302
309
314
316
313
313
313
313
315
315
311
311
316
325
325
318
320
324
329
331
334
337
340
339
342
344
346
348
355
361
359
361
363
362
357
354
343
338
330
323
322
316
306
302
301
306
306
304
297
296
302
302
303
300
299
302
301
299
298
299
299
300
305
303
304
304
301
304
302
307
308
304
306
305
304
304
301
303
306
309
309
307
307
306
308
308
315
317
320
320
314
309
302
297
295
300
305
298
295
299
300
296
295
290
287
306
356
405
432
417
360
319
301
286
287
294
301
311
308
305
307
309
308
307
311
311
309
311
311
311
309
316
321
319
321
326
332
332
329
332
338
341
341
345
353
354
355
357
359
357
350
346
338
329
325
323
317
309
307
303
299
296
297
299
298
296
301
300
297
297
301
303
298
300
300
300
302
300
300
301
307
307
312
313
306
306
310
308
304
305
310
305
308
306
303
300
305
311
315
314
308
311
314
311
322
326
316
305
307
310
306
302
297
301
304
301
296
297
293
290
297
329
385
429
441
400
341
306
288
281
284
295
301
305
302
301
307
307
303
302
303
303
304
304
307
310
311
309
309
312
316
319
323
325
327
331
334
337
342
345
348
351
353
355
356
351
344
342
336
326
317
310
303
297
295
295
294
290
293
294
293
292
293
293
294
295
299
297
294
295
298
297
298
300
301
303
302
303
303
302
303
302
301
301
301
301
301
299
299
300
301
298
298
300
299
299
298
299
299
302
303
303
303
305
306
310
314
318
320
317
315
315
307
299
296
295
296
296
297
297
299
295
286
277
275
303
363
433
482
476
405
343
309
294
289
289
293
297
298
297
298
297
300
300
301
301
303
306
308
310
310
312
316
319
319
323
325
328
329
334
337
341
345
349
353
356
359
363
364
362
362
360
353
342
335
326
317
309
305
301
295
294
292
291
289
290
290
289
291
295
297
294
294
295
296
293
296
298
297
296
296
296
296
296
301
300
296
298
301
301
299
297
299
301
299
300
301
301
299
299
300
299
298
299
300
300
303
304
304
303
304
305
305
304
306
308
308
309
310
313
312
313
317
321
321
322
326
331
334
336
332
329
328
325
316
309
307
310
312
312
309
308
306
298
289
290
325
397
478
531
508
421
353
319
303
299
301
306
310
310
309
307
309
310
312
311
313
315
317
317
319
320
320
323
327
329
329
334
337
341
345
349
353
357
361
367
368
370
375
380
380
377
372
366
357
346
336
326
317
310
307
301
294
291
292
291
288
290
291
292
292
294
295
295
297
296
298
297
298
300
299
297
297
299
301
301
302
303
302
301
301
301
299
302
304
304
303
305
304
303
302
303
305
305
304
305
305
304
304
305
305
304
305
306
307
306
308
309
309
308
307
307
305
306
307
309
307
309
311
314
316
317
320
324
330
334
332
328
329
327
320
310
307
305
304
303
302
308
309
305
293
283
292
340
419
502
543
496
398
337
302
287
287
295
302
303
302
302
302
301
301
303
304
305
308
309
311
314
317
319
320
325
327
330
332
336
342
346
349
355
360
364
369
373
377
380
381
380
377
372
366
355
341
330
321
315
307
302
297
294
291
290
289
287
288
288
288
288
289
288
288
287
290
291
294
294
294
296
296
299
299
299
299
300
300
300
300
299
301
303
303
302
300
301
301
302
303
302
303
301
302
300
302
303
302
302
304
304
303
303
304
305
304
305
308
307
307
309
311
311
312
314
315
313
317
322
322
322
328
336
337
334
333
334
330
322
315
311
309
309
308
308
306
305
304
294
281
283
318
390
475
538
530
435
354
314
294
287
294
305
310
308
306
305
307
310
310
312
312
314
316
319
317
319
322
325
328
330
334
335
338
341
346
348
353
360
366
367
372
376
380
380
382
380
375
369
360
349
336
326
316
306
300
296
295
292
289
288
288
289
290
288
289
290
294
294
294
292
294
294
292
294
298
298
297
298
298
298
298
300
301
302
302
301
299
300
302
302
300
301
303
304
304
303
304
306
304
303
306
307
305
305
307
306
306
308
309
310
308
309
309
308
309
311
311
309
311
313
312
311
312
313
314
312
313
313
311
310
311
314
315
320
324
326
327
333
337
338
333
333
333
328
317
312
312
310
311
313
314
311
307
302
290
285
312
377
461
534
543
462
371
322
297
289
292
304
312
312
310
310
310
310
313
315
318
317
319
321
325
323
326
328
329
331
335
340
343
347
351
355
360
366
370
374
379
384
388
390
388
388
385
378
371
362
348
336
328
318
309
302
299
296
292
292
292
292
290
292
293
292
291
293
296
296
295
297
297
298
300
302
302
301
302
303
304
303
304
304
303
302
305
307
307
305
306
306
304
305
305
304
301
303
303
304
305
305
304
303
303
306
304
302
303
305
305
303
303
302
302
302
303
304
302
304
306
306
303
305
307
306
304
305
307
307
305
305
307
307
308
311
315
317
319
323
328
332
336
335
331
329
328
322
309
303
301
302
303
304
304
303
298
289
280
284
329
406
488
542
516
414
341
304
284
281
289
301
306
304
301
300
303
304
306
309
310
313
313
316
317
318
320
324
327
329
332
337
339
343
350
356
360
361
366
372
377
381
385
386
387
386
384
375
363
353
344
334
320
311
303
299
295
292
289
288
289
290
290
289
289
289
290
289
290
291
292
290
292
293
293
295
296
296
293
295
297
297
295
298
297
295
296
297
297
296
298
298
299
297
298
299
299
299
301
303
300
299
301
305
304
304
302
302
301
301
300
301
301
300
300
299
300
302
301
298
300
302
304
302
302
303
303
302
305
305
305
303
306
307
307
307
311
311
312
315
319
320
320
326
334
336
334
332
331
330
325
316
309
308
309
310
310
309
310
307
296
285
285
324
396
484
545
531
432
353
311
288
285
296
309
314
312
313
313
312
314
315
316
317
319
322
326
327
329
331
334
338
341
345
347
352
356
357
362
368
371
374
380
385
387
389
392
394
394
388
382
372
361
348
336
326
317
307
301
297
293
290
291
291
289
289
290
290
291
294
293
292
294
295
295
293
295
295
296
294
297
299
299
299
300
300
299
300
302
302
302
303
304
304
301
301
302
300
301
302
303
302
302
303
304
303
303
304
303
301
304
304
304
303
303
305
304
304
304
307
305
306
307
307
307
310
312
313
319
329
332
325
323
325
326
325
322
314
307
306
306
305
304
305
306
306
300
292
282
292
338
414
491
524
473
379
320
287
272
279
294
305
309
306
303
304
308
309
307
310
311
314
314
317
321
324
324
326
331
332
335
340
346
349
353
357
364
368
372
377
381
382
385
386
386
382
376
369
357
346
335
326
314
308
304
300
294
292
291
288
287
288
289
289
289
291
293
291
294
296
295
294
295
296
295
295
296
296
297
298
299
298
296
297
298
301
301
301
300
299
300
301
299
300
299
298
299
298
300
302
302
300
300
302
301
301
302
303
302
303
303
303
302
304
306
306
305
306
308
307
312
314
316
322
326
328
328
326
325
323
317
309
305
303
301
304
306
304
303
300
290
279
283
326
402
485
534
507
411
341
307
288
286
289
296
306
312
312
308
307
309
310
312
314
316
316
316
317
318
321
325
326
330
333
336
340
347
349
355
358
364
367
373
376
380
383
384
383
384
379
371
360
345
333
324
316
307
301
295
289
289
290
290
288
288
289
289
288
289
291
293
292
294
291
291
293
297
299
296
300
301
299
299
301
301
302
301
302
302
299
300
304
305
301
304
304
304
303
302
303
305
306
307
306
303
304
306
306
305
306
310
309
307
309
313
316
316
320
326
331
334
335
332
327
322
313
306
302
302
304
305
304
306
304
299
288
279
291
341
420
500
536
487
392
330
298
284
288
295
302
307
310
306
304
306
309
311
309
311
314
315
317
321
325
325
327
330
335
338
341
345
348
351
357
362
366
371
375
379
381
384
383
381
376
370
360
350
339
328
318
309
303
299
294
290
289
289
287
286
287
286
288
289
292
292
290
292
293
293
292
294
295
295
295
297
299
298
300
302
301
300
302
304
304
301
304
304
303
303
305
306
303
301
304
306
305
307
309
309
309
312
315
318
320
324
329
330
330
327
326
319
309
303
302
301
301
301
299
298
297
293
281
271
280
326
402
486
531
492
390
325
291
274
273
281
292
295
295
294
295
294
296
298
299
298
302
307
308
307
309
312
314
317
320
322
325
332
337
341
343
347
353
359
365
372
376
375
378
376
371
365
354
343
330
318
309
300
291
286
286
283
281
280
279
278
277
279
279
281
280
282
284
283
285
286
286
287
288
290
291
289
292
294
294
294
297
295
294
297
298
298
298
299
299
297
296
298
299
297
295
299
300
299
301
305
309
310
313
319
322
323
326
324
322
318
309
301
295
294
297
297
296
296
297
295
285
275
270
295
361
447
524
538
461
367
314
284
275
281
293
301
302
301
298
301
305
307
308
309
311
315
314
316
318
321
324
324
326
329
333
339
344
347
353
358
361
366
371
374
379
383
384
383
380
376
369
358
343
330
320
309
300
296
290
285
282
283
284
284
285
284
285
286
289
290
289
289
290
290
289
290
293
293
295
294
294
295
295
298
299
298
297
299
300
298
298
298
298
297
296
297
298
298
301
301
300
299
300
301
300
298
300
299
298
301
302
304
301
302
304
304
303
307
310
311
314
319
325
329
333
332
330
328
324
319
310
305
307
307
305
305
306
306
301
295
284
280
310
382
472
542
545
456
366
318
294
286
293
303
309
310
308
304
306
307
307
308
309
313
314
315
317
320
322
326
328
331
335
341
346
348
351
356
362
365
371
377
382
384
388
391
392
388
385
378
367
355
344
332
319
309
303
299
295
290
288
287
287
288
288
289
289
290
290
291
292
292
294
296
298
299
297
298
299
299
299
299
299
299
298
301
300
300
301
304
303
300
300
303
304
301
300
301
302
301
302
304
302
300
301
301
300
300
302
304
301
301
306
307
305
305
305
306
304
305
306
303
303
304
306
304
304
305
305
304
306
308
308
310
310
310
309
309
309
309
308
311
312
314
312
313
316
319
319
321
325
332
336
336
337
335
334
335
330
322
313
307
307
310
312
314
312
310
301
291
282
300
361
446
525
557
487
388
330
298
286
290
302
313
315
312
311
312
314
315
315
316
319
321
321
325
326
329
331
336
336
338
340
344
347
351
355
360
366
371
375
377
379
384
387
388
390
390
384
374
364
353
340
332
322
312
305
302
297
294
290
293
292
291
290
291
290
290
293
296
295
295
296
298
299
298
300
300
302
303
304
304
300
302
304
304
300
303
305
305
303
303
301
299
300
301
301
301
304
304
303
302
303
305
304
301
303
305
303
304
306
307
305
306
307
311
309
308
308
307
308
309
308
306
308
312
314
313
315
318
322
326
329
329
329
327
328
328
324
316
309
308
307
308
309
311
309
307
299
289
284
310
372
452
519
522
444
361
315
289
281
287
300
309
310
307
307
307
305
309
313
313
314
315
316
319
321
325
327
329
331
336
338
338
342
346
352
356
361
363
367
373
377
378
378
379
380
377
370
359
346
335
324
316
309
301
297
293
291
288
289
290
289
286
289
291
291
289
290
292
292
293
296
296
295
297
299
298
295
298
300
299
297
299
301
300
300
302
302
301
300
302
303
301
301
301
301
299
302
302
302
301
302
303
301
295
299
306
308
304
303
307
304
303
304
306
307
305
306
306
306
306
310
311
313
313
316
318
319
323
326
327
324
326
327
327
322
317
310
303
302
306
308
306
304
303
297
284
275
295
354
437
514
537
474
382
328
301
288
289
296
302
300
299
300
301
299
302
306
305
303
305
308
309
311
313
317
316
320
324
326
328
333
338
344
346
351
357
363
367
370
375
377
376
376
375
368
360
350
338
326
317
309
300
294
290
287
284
283
282
283
283
284
285
284
284
287
287
287
289
290
291
291
293
292
292
292
294
295
293
294
296
296
296
299
297
297
296
298
298
296
293
296
295
295
296
296
295
294
297
297
298
298
297
299
299
300
301
301
299
301
301
303
300
301
304
303
302
303
305
304
303
306
306
305
307
308
311
311
314
318
320
321
324
328
332
334
335
332
330
331
330
325
317
310
305
303
303
307
310
305
302
294
284
282
318
391
477
541
536
449
367
323
301
294
295
304
309
309
305
304
306
308
308
311
312
312
313
317
320
319
323
325
328
330
335
338
341
345
349
352
356
362
368
373
376
380
385
386
386
385
384
378
368
355
343
330
319
312
305
299
295
294
290
287
289
290
290
289
291
291
290
291
292
290
289
293
296
295
292
295
297
296
296
299
299
295
297
299
299
301
300
300
301
299
301
302
301
301
302
305
302
300
301
303
301
302
304
302
303
306
305
302
303
305
304
302
303
305
306
303
304
303
302
301
301
301
300
301
304
306
306
307
312
314
313
316
319
323
326
330
332
330
328
327
327
324
321
316
307
299
300
302
302
303
304
301
291
282
278
301
367
455
535
554
479
381
329
299
286
288
300
306
306
306
306
305
306
308
309
310
312
313
313
317
320
322
325
328
332
333
335
341
345
349
353
360
367
368
373
378
383
386
389
392
391
389
383
375
361
348
338
328
317
309
304
299
296
296
293
293
291
291
291
289
288
291
292
291
291
293
292
290
293
295
295
294
296
297
296
296
298
299
295
297
300
300
300
301
303
302
302
304
303
301
301
302
302
299
302
304
301
301
304
304
305
304
304
306
305
304
305
307
307
307
308
311
311
316
319
321
323
329
332
333
333
332
331
329
326
318
310
307
309
310
308
305
306
305
303
293
283
281
319
393
477
533
513
415
339
299
280
281
292
304
312
313
310
308
310
311
312
315
316
318
321
322
324
325
327
330
333
335
337
342
346
352
357
363
370
375
377
382
386
387
388
390
392
388
386
379
367
353
340
330
319
313
309
305
298
297
296
296
295
295
295
295
293
293
292
291
295
298
297
297
298
298
297
295
298
298
296
297
299
302
301
301
302
302
302
301
299
299
299
300
300
301
301
302
304
302
301
304
303
301
302
304
304
304
305
306
305
305
308
311
313
314
317
320
322
326
328
330
328
327
325
320
312
306
305
304
305
306
307
303
301
295
286
279
290
338
414
490
522
473
380
322
291
277
277
289
301
304
303
304
302
301
302
306
310
311
311
312
315
316
318
321
323
325
329
333
335
339
345
349
351
358
363
370
373
378
381
384
385
384
381
374
367
357
344
331
322
314
305
298
294
293
292
290
291
291
290
290
291
290
288
291
294
294
295
296
297
296
297
299
299
299
299
299
300
299
301
303
301
301
304
303
303
305
305
303
302
306
306
303
304
305
307
308
307
308
307
305
306
308
310
307
307
308
310
306
307
312
311
311
311
315
315
316
320
327
328
332
332
330
327
325
322
315
307
304
303
303
301
302
304
301
300
292
279
278
314
385
468
529
522
435
357
317
292
284
289
299
305
304
302
303
305
303
305
308
310
313
316
318
317
317
321
322
324
328
333
335
336
341
346
350
352
357
362
368
372
377
382
383
385
383
379
370
363
352
340
328
319
311
304
296
293
290
287
286
286
288
289
289
289
290
290
291
291
292
294
297
297
295
295
298
300
298
299
303
302
299
299
301
303
302
304
304
303
305
306
304
301
303
307
307
304
304
306
304
304
304
303
300
302
303
305
304
304
305
305
305
307
306
307
310
313
316
315
315
321
328
330
332
331
329
326
324
323
316
307
302
301
300
302
303
303
301
298
291
278
275
306
377
461
529
534
449
361
314
291
285
286
296
301
300
299
298
299
298
295
298
306
310
311
309
312
316
318
319
322
325
328
331
335
340
345
350
355
359
365
373
377
381
386
391
392
389
386
379
371
357
344
333
323
313
306
