#!,Workbook:,Custom,Custom
#!,To play this data back: Open the original Excel workbook file then click the *Import Data File* button in the *Data Streamer* ribbon and navigate to this file.
#!,For more information visit http://aka.ms/hackingstem/
365
368
372
377
380
384
388
391
394
395
395
395
391
385
376
365
354
344
336
329
321
315
312
310
309
308
307
309
309
310
310
313
313
315
314
313
314
316
317
318
319
319
320
320
320
319
320
319
320
320
320
320
321
321
321
320
320
322
320
320
321
323
323
323
323
323
324
324
324
324
324
324
324
324
326
327
327
326
328
328
329
329
330
331
331
332
332
333
334
334
336
337
339
339
341
342
343
345
347
350
354
359
363
364
365
365
366
367
368
367
363
360
356
351
351
352
351
349
348
345
336
324
233
50
0
0
0
0
0
0
0
0
0
0
0
0
0
0
0
0
0
0
0
0
0
0
0
0
0
0
0
0
0
0
0
0
0
0
0
0
0
0
0
0
0
0
0
0
0
0
0
0
0
0
0
0
0
0
0
0
0
0
0
0
0
0
0
0
0
0
0
0
0
0
0
0
0
0
0
0
0
0
0
0
0
0
0
0
0
0
0
0
0
0
0
0
0
0
0
0
0
0
0
0
0
0
0
0
0
0
0
0
0
0
0
0
0
0
0
0
0
0
0
0
0
0
0
0
0
0
0
0
0
0
0
0
0
0
0
0
0
0
0
0
0
0
0
0
0
0
0
0
0
0
0
0
0
0
0
0
0
0
0
0
0
0
0
0
0
0
0
0
0
0
0
0
0
0
0
0
0
0
0
0
0
0
0
0
0
0
0
0
0
0
0
0
0
0
0
0
0
0
0
0
0
0
0
0
0
0
0
0
0
0
0
0
0
0
0
0
0
0
0
0
0
0
0
0
0
0
0
0
0
0
0
0
0
0
0
0
0
0
0
0
0
0
0
0
0
0
0
0
0
0
0
0
0
0
0
0
0
0
0
0
0
0
0
0
0
0
0
0
0
0
0
0
0
0
0
0
0
0
0
0
0
0
0
0
0
0
0
0
0
0
0
0
0
0
0
0
0
0
0
0
0
0
0
0
0
0
0
2
27
67
95
111
124
138
155
171
185
198
212
223
20
640
653
666
678
687
697
701
704
705
706
706
707
707
708
708
708
708
709
708
709
709
709
709
709
709
709
709
709
709
709
708
709
709
709
709
709
709
709
709
709
709
709
709
709
709
709
709
709
709
709
709
709
710
709
709
708
709
709
709
709
709
709
709
709
709
709
709
709
709
709
709
710
709
709
709
709
709
709
709
709
709
709
709
709
709
709
709
709
708
709
709
709
709
709
709
709
709
709
711
709
709
709
709
710
710
709
709
709
709
709
709
709
709
709
709
709
709
710
709
709
709
709
709
709
709
709
709
709
709
709
709
709
709
709
709
709
709
709
709
709
709
709
709
709
709
709
709
709
709
709
709
709
710
709
710
709
709
709
709
709
709
709
709
709
709
709
709
709
708
709
708
708
708
708
708
708
707
707
706
705
705
706
707
708
707
707
705
687
606
556
546
549
542
529
515
503
492
481
469
459
449
437
426
417
408
400
392
383
376
368
359
352
345
338
334
329
324
319
314
310
305
300
294
288
280
271
262
250
234
216
199
184
180
185
175
27
0
0
0
0
0
0
0
0
0
0
0
0
0
0
0
0
0
0
0
0
0
0
0
0
0
0
0
0
0
0
0
0
0
0
0
0
0
0
0
0
0
0
0
0
0
0
0
0
0
0
0
0
0
0
0
0
0
0
0
0
0
0
0
0
0
0
0
0
0
0
0
0
0
0
0
0
0
0
0
0
0
0
0
0
0
0
0
0
0
0
0
0
0
0
0
0
0
0
0
0
0
0
0
0
0
0
0
0
0
0
0
0
0
0
0
0
0
0
0
0
0
0
0
0
0
0
0
0
0
0
0
0
0
0
0
0
0
0
0
0
0
0
0
0
0
0
0
0
0
0
0
0
0
0
0
0
0
0
0
0
0
0
0
0
0
0
0
0
0
0
0
0
0
0
0
0
0
0
0
0
0
0
0
0
0
0
0
0
85
90
96
103
114
122
131
139
148
155
165
174
182
191
199
208
219
227
233
240
250
258
265
272
279
286
292
299
305
312
317
323
328
333
338
345
350
355
359
366
371
377
380
384
388
392
395
400
404
407
410
415
419
422
424
428
433
436
440
444
446
448
452
456
461
465
469
475
483
489
492
493
494
496
497
498
498
493
490
486
484
488
491
494
494
494
491
482
470
473
513
586
668
703
701
645
569
521
496
492
499
511
514
511
509
510
513
514
517
520
522
525
526
529
530
533
535
538
541
544
546
549
552
554
558
563
567
571
576
580
585
589
593
597
599
601
602
601
593
585
575
563
552
543
535
529
524
519
518
517
515
514
514
513
513
514
514
514
513
514
515
515
514
515
514
514
514
514
514
512
513
513
512
512
511
511
511
512
512
512
512
510
508
507
506
506
507
506
505
504
503
502
502
501
502
501
499
498
498
497
497
496
496
496
495
495
494
492
491
491
489
488
488
487
486
485
482
481
482
485
487
488
488
490
494
496
495
494
493
492
490
487
484
479
472
464
460
460
460
458
456
455
451
441
428
428
464
534
614
669
657
569
495
454
433
428
432
441
444
443
439
438
438
439
439
440
441
443
443
443
444
444
445
446
446
449
450
453
456
459
460
463
467
470
471
455
433
415
399
376
343
295
248
205
159
122
91
68
43
16
0
0
0
0
0
0
0
0
0
0
0
0
0
0
0
0
0
0
0
0
0
0
0
0
0
0
0
0
0
0
0
0
0
0
0
0
0
0
0
0
0
0
0
0
0
0
0
0
0
0
0
0
4
16
29
39
45
51
57
63
69
76
82
88
93
98
104
111
122
133
141
146
153
162
167
171
176
177
181
181
182
184
190
195
199
198
195
199
204
207
213
219
225
227
231
236
241
246
252
258
263
265
266
265
263
263
262
256
246
33
223
221
220
220
220
219
216
212
204
191
195
238
314
397
455
439
360
299
260
240
238
246
262
268
269
271
271
275
276
280
286
289
294
297
298
304
310
317
321
324
328
333
341
348
353
359
365
369
373
377
381
384
386
390
391
384
366
341
314
284
254
221
189
160
133
110
91
78
69
62
58
55
55
58
61
63
64
66
69
71
74
77
81
85
88
92
97
102
105
106
108
111
110
108
102
97
96
98
100
103
106
109
113
119
124
130
137
143
146
150
157
162
165
167
172
178
185
190
196
203
208
215
221
226
233
238
244
249
257
263
271
278
285
294
303
311
318
324
328
332
337
339
342
342
339
335
336
340
345
346
348
350
352
344
332
328
355
418
498
569
589
522
440
393
368
358
360
370
378
380
378
379
381
383
385
387
390
392
395
397
398
401
405
406
409
414
417
419
424
427
429
434
440
443
445
448
452
457
463
467
469
468
467
464
458
449
440
429
418
408
399
392
386
383
380
380
379
379
378
376
375
378
379
380
380
381
381
383
387
389
389
389
391
394
396
398
400
401
401
401
402
402
402
403
403
404
403
403
402
402
403
402
402
401
401
401
401
400
399
401
400
399
398
397
396
395
395
396
397
396
394
394
396
398
398
401
406
411
413
414
412
414
416
415
414
411
410
406
401
399
404
408
411
413
415
418
415
406
402
428
494
579
654
675
614
527
473
447
436
437
446
453
451
449
448
448
449
449
449
450
450
450
449
448
449
450
452
452
453
452
453
453
454
458
460
462
463
465
466
469
471
473
475
475
474
474
470
464
454
442
431
418
408
398
390
383
379
376
374
373
372
370
372
373
372
370
370
371
373
373
371
371
372
371
372
371
372
375
378
376
374
375
377
376
375
376
377
377
377
376
377
378
377
379
379
376
374
376
375
374
373
371
371
371
369
369
368
367
366
364
362
361
359
360
361
361
362
363
368
372
372
371
370
371
368
366
364
360
355
348
341
339
338
338
338
339
336
332
321
311
315
356
425
502
553
531
438
370
333
313
309
314
326
328
325
324
321
320
320
322
323
324
326
327
327
327
325
327
328
329
332
337
340
344
348
352
356
360
367
371
377
380
383
387
389
392
394
394
391
385
376
364
356
348
339
333
328
322
319
318
318
316
317
319
323
323
325
326
328
330
333
333
333
333
334
334
336
338
337
336
338
338
338
339
339
340
340
337
336
335
336
335
333
334
334
331
330
330
328
327
327
326
324
321
321
321
319
317
316
314
313
316
318
318
317
318
318
321
327
331
332
331
329
329
329
328
329
325
318
311
309
312
315
316
319
320
319
314
307
299
311
365
444
528
573
539
451
394
363
349
351
361
375
384
388
389
391
398
403
407
411
414
422
427
431
436
443
448
451
455
461
465
470
476
481
487
494
501
509
517
523
526
530
534
540
543
543
543
540
533
522
512
501
491
479
468
463
460
455
450
444
443
444
441
442
442
439
437
436
436
435
434
433
433
431
428
425
422
416
415
412
409
404
399
395
389
383
374
366
354
344
336
326
316
308
300
294
288
283
280
275
272
272
270
269
268
268
267
265
263
265
267
269
270
273
277
283
285
287
286
286
285
287
288
287
281
276
270
265
264
264
265
265
265
263
254
243
237
257
313
391
463
493
435
347
296
267
253
256
267
274
273
271
272
271
272
274
277
278
279
283
285
289
291
292
294
298
302
306
308
308
313
316
321
324
329
336
341
345
351
358
365
369
372
376
378
376
371
364
356
348
339
332
328
323
320
317
317
317
319
321
324
325
328
331
333
336
340
343
346
350
352
354
358
361
365
367
370
374
377
382
385
386
389
393
395
399
403
408
411
413
416
419
423
426
428
433
436
437
438
439
440
443
443
446
447
450
453
453
455
458
463
466
467
468
466
465
467
467
463
456
450
443
441
445
444
442
440
439
435
425
412
409
438
502
578
637
634
550
472
428
402
393
399
408
412
408
405
403
403
401
400
400
399
400
400
400
398
396
397
398
398
399
402
402
403
405
408
410
410
414
417
420
423
424
426
427
428
429
428
423
417
410
400
390
380
370
359
351
346
340
337
334
333
331
330
330
330
331
329
329
328
331
331
330
331
335
336
336
339
339
338
340
340
343
344
343
341
340
342
343
340
339
342
341
340
340
340
339
339
338
339
338
338
338
338
338
339
337
338
336
337
339
341
344
344
345
349
354
355
354
354
352
349
350
350
347
342
337
330
328
328
328
330
330
328
324
313
302
308
353
424
500
543
516
428
365
329
309
305
309
317
319
316
316
317
316
316
317
317
319
323
324
325
325
328
332
333
333
336
337
338
339
341
344
350
355
358
362
366
370
373
377
380
383
384
382
377
373
366
358
349
338
328
320
313
308
304
302
299
299
298
297
297
298
299
300
300
300
300
300
301
302
302
302
302
302
303
304
302
303
304
305
304
303
303
305
304
303
304
305
304
305
305
305
305
305
305
304
303
304
306
307
307
307
308
308
309
311
313
316
319
324
328
331
331
331
330
329
330
330
327
323
317
311
309
310
310
310
308
309
305
293
281
285
330
403
481
530
506
416
350
316
297
293
299
309
312
310
308
308
307
308
310
309
311
312
315
318
320
323
326
327
330
331
333
336

343
347
352
356
361
365
368
371
376
380
382
384
385
385
381
376
366
357
346
337
326
319
316
311
308
305
304
303
303
303
302
302
302
304
304
303
305
306
308
307
308
309
310
310
311
312
313
313
313
313
314
314
315
315
315
317
317
316
317
317
317
317
317
319
320
317
317
318
320
323
325
324
326
331
336
339
341
341
340
336
335
333
332
330
326
319
319
321
321
320
319
319
317
307
296
291
315
373
450
512
513
436
364
324
302
296
304
320
332
332
330
327
329
332
333
332
336
338
339
342
343
345
348
349
351
352
355
357
362
364
367
371
376
377
380
387
391
396
397
398
399
399
400
396
391
381
367
359
355
348
336
332
330
328
326
321
321
321
320
320
323
320
319
323
323
324
323
325
327
326
323
323
323
324
324
326
327
326
327
331
332
332
329
327
327
328
330
330
330
330
329
328
332
332
333
334
333
333
336
340
342
347
350
350
351
356
356
353
352
352
344
334
329
329
329
330
329
326
329
329
321
310
307
325
369
431
490
500
437
367
328
306
303
313
323
330
332
335
334
332
332
331
328
330
339
343
339
339
343
347
346
342
344
347
351
357
358
356
360
365
371
375
376
379
383
386
384
387
390
389
382
380
374
365
356
352
348
338
330
326
327
324
320
320
320
318
317
321
324
323
322
325
326
322
325
329
329
329
329
330
331
329
331
329
326
332
334
332
331
330
328
331
334
333
329
330
331
340
343
341
334
330
334
341
350
347
351
349
339
333
333
328
323
316
324
320
316
322
327
325
314
306
308
342
404
469
511
494
411
351
326
314
308
315
326
327
328
331
326
321
325
333
334
331
333
336
336
338
334
336
342
348
350
351
354
351
349
350
357
371
376
367
366
382
387
384
383
387
384
384
386
379
364
349
339
338
335
327
317
313
312
310
311
311
316
313
311
316
316
315
312
315
316
319
316
311
315
322
324
321
319
316
319
323
318
315
318
319
320
318
321
322
324
328
330
332
333
333
338
341
341
343
340
336
334
325
316
314
317
315
311
321
319
316
311
302
296
300
332
397
472
522
506
429
366
332
317
310
311
317
323
325
322
321
320
320
322
321
326
329
327
327
330
333
333
334
340
345
345
348
352
355
359
362
366
370
373
377
380
383
386
389
389
390
388
382
377
368
360
350
342
335
330
326
322
319
316
315
315
314
313
314
315
316
315
316
316
317
318
319
319
319
319
320
321
321
322
322
323
324
325
325
324
324
325
324
322
322
325
328
332
332
333
338
343
346
348
347
345
345
338
324
322
325
324
323
322
321
321
319
314
304
297
314
368
448
525
553
502
414
357
328
315
315
320
325
326
324
324
324
325
326
328
329
332
334
334
338
340
341
342
345
347
350
352
355
359
362
366
369
375
380
383
386
389
391
394
398
400
398
393
386
377
367
356
346
338
330
325
322
321
318
317
316
317
317
317
317
319
319
320
320
321
322
322
323
323
323
324
324
323
323
324
325
324
323
324
323
323
323
324
324
325
325
325
327
328
329
330
331
332
334
337
339
339
342
350
355
355
353
351
350
347
339
330
327
328
330
332
332
331
331
328
321
309
303
325
381
456
524
540
471
389
343
319
310
315
325
333
335
335
335
335
336
337
338
339
340
343
346
347
348
348
349
352
354
356
358
361
366
369
371
375
380
384
386
389
393
397
398
398
398
396
393
385
375
366
356
348
340
334
328
326
323
320
319
319
320
319
319
320
321
320
321
323
324
325
326
327
328
327
329
332
331
331
332
332
332
332
332
333
333
334
334
333
331
329
329
328
327
328
329
329
328
329
329
329
329
330
332
332
334
335
336
336
337
340
344
344
344
347
352
354
356
357
356
354
349
341
338
336
334
335
335
336
338
336
329
318
310
323
370
438
504
525
476
396
351
327
314
317
326
334
336
334
333
333
333
335
337
338
340
340
341
342
344
346
348
350
352
355
358
360
362
366
368
370
374
377
381
384
388
392
394
396
397
397
393
387
380
372
362
352
344
338
331
326
322
321
320
318
317
315
314
316
317
319
318
318
319
319
320
322
324
325
324
325
325
325
325
327
328
329
330
330
330
330
331
332
331
331
331
331
331
330
330
328
328
329
329
330
330
330
331
332
331
330
332
334
334
334
333
332
332
333
334
335
337
340
341
341
344
348
352
353
353
353
352
352
354
355
352
348
340
334
334
334
335
334
334
332
327
317
308
312
351
419
491
535
514
430
368
335
320
317
321
328
330
329
326
326
327
327
329
330
332
333
335
336
338
338
340
341
343
345
348
351
354
356
358
362
366
369
373
375
380
385
388
391
393
393
391
387
381
373
363
353
343
334
326
321
317
314
311
309
309
307
307
307
306
308
310
309
308
310
312
311
313
313
314
315
316
317
318
317
318
320
320
320
320
319
321
322
320
317
312
312
322
329
328
326
324
323
322
320
320
320
319
320
321
322
323
323
322
322
324
325
325
325
325
325
326
327
329
330
331
334
335
339
343
344
345
346
345
344
344
343
342
338
333
329
328
327
327
327
328
327
323
315
306
320
372
447
521
551
506
418
364
336
321
322
329
337
339
339
338
338
338
339
341
341
342
344
346
349
351
351
353
356
357
359
363
367
370
372
376
381
385
387
388
391
396
399
402
404
405
405
402
398
390
380
370
359
351
342
335
329
324
322
320
319
319
316
316
316
316
316
318
318
319
321
320
321
322
322
324
324
324
324
325
326
327
328
329
329
329
331
331
330
328
327
326
325
326
326
326
326
329
331
330
330
330
329
329
329
330
331
331
331
332
331
331
331
331
332
332
332
333
334
334
333
335
336
335
336
336
335
334
337
340
340
340
343
349
351
353
353
353
354
353
352
351
349
343
338
332
332
333
332
333
332
331
326
315
307
324
378
455
526
552
500
413
359
333
320
320
327
335
336
334
334
335
336
337
338
339
340
341
342
343
344
346
348
352
353
354
357
359
361
364
367
370
374
378
381
384
387
391
395
397
398
399
398
395
388
379
369
358
350
342
335
329
326
325
323
322
320
320
320
322
323
324
325
325
326
326
327
328
330
330
329
331
331
335
334
333
333
335
336
337
337
337
336
335
334
334
335
335
334
334
334
334
333
333
332
334
335
335
334
333
334
334
334
334
334
334
333
333
333
333
333
334
334
333
334
335
337
337
338
339
339
338
339
342
344
346
348
351
355
358
358
357
356
356
356
356
354
350
343
337
335
337
339
337
337
335
332
322
311
316
353
422
499
550
533
446
376
340
322
317
323
333
336
334
331
331
331
332
333
335
336
338
340
341
342
343
343
345
347
351
353
356
357
360
363
368
373
376
379
382
386
389
393
395
397
397
396
393
386
378
368
358
348
340
331
327
324
319
317
315
313
313
313
311
310
312
311
311
313
314
315
315
317
317
317
316
318
319
319
319
319
320
321
322
323
323
323
323
322
320
321
321
322
320
320
320
320
321
320
320
320
321
321
321
322
322
322
321
322
323
322
321
321
321
323
325
325
325
324
325
326
327
328
327
327
326
326
327
329
329
328
329
330
331
332
332
333
333
334
334
336
338
341
342
346
349
352
351
351
351
350
350
350
347
342
336
330
330
331
330
331
331
329
323
312
303
315
366
441
518
553
509
419
362
332
317
315
321
327
328
328
329
328
329
332
333
333
335
336
337
337
339
341
342
344
347
349
352
355
357
359
362
365
369
373
377
381
385
389
391
394
397
398
397
395
390
382
372
362
352
342
334
328
323
319
314
313
313
313
312
312
313
313
314
315
316
317
318
319
319
319
321
322
322
322
322
323
324
324
325
325
326
327
327
327
327
327
328
327
326
326
327
327
326
325
325
324
324
325
325
324
324
324
325
325
325
326
327
328
328
326
327
327
327
329
330
330
330
330
331
331
333
334
333
333
334
336
337
340
341
345
349
352
356
355
354
354
355
354
351
346
341
334
327
326
327
327
326
327
324
315
305
303
329
391
468
535
546
472
390
343
319
311
312
321
327
326
325
324
325
326
328
330
331
331
333
334
336
339
341
343
345
347
351
355
359
363
364
367
371
378
382
386
390
395
397
399
403
406
407
405
399
393
384
374
362
352
344
335
330
326
323
321
320
320
319
319
319
321
321
320
320
320
321
322
322
323
324
324
323
324
325
326
325
327
327
326
329
331
332
331
332
332
331
331
330
331
332
332
332
333
332
331
332
333
334
333
334
334
333
334
335
334
334
334
334
333
334
335
335
334
334
336
336
336
336
337
338
338
339
340
339
338
338
340
338
337
338
341
344
345
349
353
356
358
358
359
356
356
356
354
348
341
335
331
332
334
332
330
329
326
318
308
311
349
417
494
548
534
447
3771
322
315
320
330
336
335
332
331
333
333
335
337
339
341
343
345
346
347
350
352
355
358
360
364
366
368
370
373
377
380
382
387
391
396
400
403
405
407
406
402
397
389
381
370
360
350
341
335
329
325
323
321
319
319
319
320
319
319
319
318
320
320
320
320
322
323
324
323
323
325
325
324
323
324
325
325
326
327
328
327
328
329
329
328
329
328
327
327
328
329
328
326
326
327
327
328
330
331
329
329
330
331
331
330
331
332
331
331
333
333
333
333
332
332
332
331
331
332
331
331
332
333
332
332
334
336
340
342
344
348
352
354
354
353
352
353
352
350
347
343
337
329
327
327
329
328
328
325
317
306
301
324
383
459
529
548
485
399
350
325
313
314
321
327
327
325
325
323
325
327
328
329
329
332
334
335
337
337
341
343
345
348
351
352
356
359
361
365
370
375
381
385
389
392
393
395
396
399
398
394
387
379
368
357
346
336
329
322
319
315
312
311
309
308
308
308
310
310
309
309
308
307
308
310
312
311
313
315
315
315
316
317
317
317
317
318
318
317
318
318
318
317
317
317
317
317
318
318
318
318
320
322
322
322
322
322
321
322
323
323
323
325
325
324
325
325
325
326
326
325
326
326
328
327
327
327
329
331
334
336
336
339
342
347
349
350
349
347
347
346
344
343
339
335
326
324
324
324
324
324
324
319
308
299
311
361
434
511
550
511
418
359
327
311
310
318
326
328
326
325
326
326
327
329
332
334
334
335
336
337
339
341
342
343
346
349
353
356
359
362
367
372
376
380
383
387
391
396
400
401
402
403
400
393
384
376
364
354
346
338
330
325
322
320
317
318
318
319
319
320
322
321
320
321
322
322
322
323
324
325
324
325
325
325
326
328
328
328
327
328
329
329
330
330
331
330
330
330
331
331
331
332
331
332
332
332
331
331
332
331
331
332
333
333
333
335
335
335
335
337
337
337
337
337
337
337
337
339
342
344
346
349
353
356
358
358
357
356
356
355
352
347
342
336
332
333
334
333
332
330
327
316
306
313
355
427
505
555
529
437
369
335
318
315
321
331
333
333
332
331
333
334
335
335
337
338
339
342
343
343
346
348
350
352
354
356
359
362
366
370
374
377
382
385
390
394
398
401
403
404
403
401
395
387
377
365
353
344
336
329
323
319
315
313
313
313
313
312
312
314
314
315
314
314
314
313
313
314
315
317
318
318
319
319
319
319
321
322
322
323
322
322
324
325
325
324
323
323
323
323
323
323
324
324
325
325
326
326
326
326
325
327
327
328
327
327
328
327
327
328
330
331
330
332
333
335
336
340
344
349
353
354
353
351
351
351
351
350
347
342
335
329
330
332
332
333
332
329
321
309
308
340
406
486
549
547
463
383
343
321
312
315
324
328
326
323
323
324
324
325
327
328
329
331
332
333
336
338
338
340
342
344
346
349
354
358
363
366
370
376
381
384
388
392
395
397
399
400
398
394
387
377
365
353
343
336
327
321
317
313
311
309
309
309
307
307
308
308
308
309
311
312
313
314
314
316
315
315
315
316
317
317
318
318
319
321
323
322
322
323
323
322
323
324
324
323
324
326
326
326
326
327
327
328
327
328
327
327
327
328
327
328
328
328
326
326
328
328
328
328
329
330
330
330
329
329
330
331
332
332
334
336
338
341
346
352
354
354
354
354
354
352
350
348
345
340
334
332
332
331
329
329
328
322
312
304
318
369
445
524
561
513
420
360
330
315
315
323
332
333
331
329
328
328
331
331
331
332
334
335
337
340
343
345
346
349
352
354
357
361
364
366
369
373
376
382
386
391
397
401
402
404
405
404
401
396
387
377
366
356
346
338
331
324
321
320
318
317
316
316
317
317
317
317
317
319
319
320
321
322
324
324
325
326
327
328
329
329
329
329
329
330
329
328
328
326
326
327
329
329
330
330
330
330
330
330
330
330
331
333
332
331
332
331
331
332
333
334
333
332
331
333
335
336
337
338
342
348
352
353
353
351
350
350
349
348
343
337
329
328
330
331
329
330
328
324
312
302
306
344
410
486
535
510
421
358
324
305
304
313
325
331
330
328
327
328
330
331
333
336
337
337
338
340
342
345
347
349
351
352
354
357
359
363
366
371
375
379
383
387
390
393
395
398
398
397
395
388
380
371
362
353
344
338
334
331
328
326
323
322
320
319
319
320
320
320
319
321
321
322
323
322
323
324
324
324
325
325
328
330
330
331
330
330
330
331
331
331
331
333
334
333
333
333
333
333
332
332
332
333
332
332
332
332
333
333
332
331
331
331
331
331
332
335
336
338
341
347
350
351
352
352
350
350
350
348
344
339
331
326
326
328
328
328
326
325
318
307
307
339
403
480
535
528
449
377
340
320
313
317
325
330
331
328
327
329
331
333
334
335
336
337
340
341
341
342
345
348
349
351
353
356
358
361
364
367
371
375
380
383
386
391
394
395
396
396
395
389
381
372
364
353
342
336
330
326
321
320
318
317
316
316
316
315
316
317
316
316
318
318
319
319
319
320
322
322
323
324
323
324
325
324
324
325
324
323
323
324
326
325
324
324
324
325
323
323
324
323
322
323
324
323
323
323
323
323
323
325
326
326
326
327
328
329
331
336
340
340
340
341
341
341
341
341
339
335
329
324
321
320
320
320
319
318
312
302
291
305
356
432
506
541
500
410
353
327
315
312
315
321
322
321
320
322
321
322
322
325
326
327
329
332
334
337
339
342
345
345
348
351
353
356
360
365
370
374
378
383
387
391
394
397
399
399
397
393
387
378
367
356
347
339
331
324
319
316
313
310
308
309
310
310
312
314
314
314
315
316
317
318
318
319
320
321
321
322
322
323
323
325
325
325
325
325
324
325
326
327
326
326
327
326
326
327
327
326
326
326
327
328
328
330
332
334
335
338
344
348
351
353
351
349
348
350
349
347
342
335
327
327
328
327
326
325
325
320
308
298
307
355
426
501
540
500
409
350
319
303
304
314
325
331
330
329
328
329
329
330
331
332
334
335
336
337
340
341
344
346
348
351
354
357
358
362
366
368
370
376
380
384
390
394
395
396
396
393
388
381
373
363
352
342
334
327
322
317
313
312
312
312
311
311
310
311
313
313
312
312
312
313
313
316
317
317
318
319
319
319
319
321
322
321
321
319
319
319
319
321
322
322
323
323
322
323
321
322
322
322
323
325
325
326
329
334
337
339
341
342
342
341
341
340
337
335
328
323
323
324
326
327
325
324
318
309
302
317
365
430
487
504
448
374
335
313
305
311
322
331
335
334
332
330
331
334
335
337
338
338
340
344
344
345
347
348
349
352
355
358
361
363
366
367
371
376
380
383
386
389
392
394
396
396
392
387
379
371
362
353
344
338
332
327
325
325
323
322
321
322
322
321
320
321
321
320
322
323
325
325
326
326
326
327
329
331
331
332
331
330
331
332
333
332
332
332
332
332
332
330
331
331
329
330
331
331
330
331
334
336
337
338
341
344
345
348
350
352
351
348
346
343
340
331
325
324
326
327
327
326
325
321
314
302
298
322
378
449
506
512
446
376
336
315
308
312
319
325
325
323
322
323
323
325
326
328
329
330
333
335
337
339
340
342
345
348
352
355
358
362
364
368
371
376
380
383
385
388
391
393
394
393
391
385
377
367
358
349
341
334
326
321
318
317
316
315
315
315
316
316
316
316
317
317
317
317
317
318
320
320
320
320
321
322
323
324
325
325
325
325
325
324
324
324
325
326
327
328
329
329
329
329
329
330
331
332
333
335
337
341
346
349
350
348
345
343
337
328
322
320
321
322
321
321
321
320
313
303
299
318
373
447
513
528
468
387
340
317
309
311
318
322
322
321
319
320
321
325
326
327
329
330
331
333
335
337
338
339
342
345
348
350
352
353
357
362
366
371
374
379
384
388
389
391
393
391
386
381
373
364
354
345
338
331
325
320
316
314
312
312
312
311
312
312
312
312
314
316
315
316
316
318
319
319
320
322
323
322
323
324
324
325
324
324
324
325
326
326
326
326
326
326
325
325
326
327
327
326
326
327
328
329
329
327
326
328
331
334
335
336
339
343
346
348
348
348
348
349
348
345
341
335
327
323
325
326
326
326
325
322
314
303
305
342
409
482
530
513
429
362
328
311
307
313
323
327
325
322
323
325
325
325
326
329
331
332
333
335
337
339
341
342
344
345
348
351
354
358
362
366
369
373
378
383
386
390
392
393
395
394
390
384
376
368
357
347
339
331
326
322
319
319
318
318
318
317
318
318
317
318
318
320
322
323
323
322
323
324
325
325
327
328
329
331
332
332
332
333
332
331
332
333
332
332
333
334
334
335
336
339
341
341
34345
349
352
354
356
355
353
352
347
336
329
328
328
329
328
328
329
327
323
314
303
307
346
416
493
541
517
427
362
330
315
313
318
327
331
330
328
328
329
332
332
332
333
334
336
337
339
341
342
344
347
349
351
355
358
360
364
367
370
374
377
379
383
385
388
391
392
390
386
381
373
363
355
344
334
327
321
318
314
311
311
310
311
311
312
311
312
312
312
313
313
315
316
317
318
321
324
326
328
329
330
329
329
330
332
333
332
333
335
335
335
336
339
340
341
342
343
345
346
350
354
357
359
358
357
358
353
344
337
334
334
334
334
332
332
331
328
322
312
307
329
388
461
518
522
452
380
341
319
311
314
323
331
334
332
330
330
332
333
334
335
336
337
340
341
344
347
349
350
351
353
356
360
361
364
367
370
375
378
383
387
391
393
395
399
400
395
390
383
375
367
359
350
342
336
329
326
323
322
321
323
322
322
323
323
323
323
323
325
325
322
321
322
324
326
327
327
326
326
326
327
327
328
331
332
331
331
331
330
329
330
329
329
328
329
329
330
330
330
330
330
329
330
330
332
334
336
337
341
346
348
349
351
350
350
348
346
340
331
328
328
328
329
330
330
329
326
316
307
313
355
425
498
537
506
423
365
336
322
319
324
331
332
330
329
328
329
329
330
332
332
333
336
338
340
341
342
344
345
348
352
354
357
360
364
366
369
372
376
380
383
388
391
393
394
394
393
390
384
374
364
354
346
339
333
328
324
323
322
320
320
320
320
320
320
321
321
322
322
324
325
326
327
327
328
328
328
329
329
330
330
329
329
329
329
330
330
331
331
329
329
329
330
330
330
330
329
329
330
331
331
332
331
332
332
333
334
334
333
332
332
332
333
334
333
332
331
333
335
337
339
341
343
347
348
350
350
348
346
346
347
346
343
339
334
327
326
326
327
327
327
325
318
306
305
336
401
478
537
538
464
387
346
327
316
317
324
327
325
323
323
324
324
326
327
328
327
328
330
333
335
337
339
343
345
348
349
351
354
357
361
364
367
372
376
379
383
386
390
393
395
395
392
387
379
371
361
350
341
333
325
320
318
315
314
313
312
313
313
313
313
313
312
311
312
313
313
314
315
315
315
316
318
318
316
315
316
318
318
318
319
319
319
319
318
319
319
320
320
319
319
320
320
320
321
322
322
320
320
321
322
321
322
322
323
324
324
325
325
326
327
328
328
330
332
336
336
339
344
347
349
349
348
347
346
345
345
342
338
334
331
330
330
329
330
330
326
317
306
304
336
403
481
537
530
449
376
336
317
313
317
325
331
331
329
328
330
332
332
333
335
336
338
341
343
344
344
348
351
353
355
358
362
365
367
369
372
377
380
384
389
393
396
398
401
402
400
397
392
383
373
363
353
345
340
337
333
329
327
326
325
323
323
324
326
329
331
333
334
334
335
335
335
335
335
336
337
338
338
340
340
341
342
343
342
342
344
344
344
345
345
345
344
344
346
346
346
346
347
347
346
345
345
346
347
347
348
348
348
347
346
346
346
346
345
345
347
350
351
353
357
361
363
364
365
364
363
363
362
360
356
352
347
344
343
343
343
344
345
343
335
323
320
348
410
483
536
528
450
381
343
323
319
323
333
337
336
332
331
332
332
335
337
338
340
339
343
344
345
345
347
349
351
353
355
357
360
363
365
370
372
377
382
385
389
391
394
395
395
395
393
388
379
370
360
350
341
334
329
326
323
320
316
314
313
313
314
314
315
316
318
319
320
321
321
321
322
324
325
326
327
328
328
329
329
330
332
332
334
335
335
335
334
335
335
336
336
335
334
334
335
335
334
334
334
335
335
336
337
337
337
337
337
337
337
337
338
338
339
338
338
338
338
338
338
338
337
338
337
338
340
342
342
345
350
353
355
355
356
355
354
354
353
351
345
339
334
332
332
332
332
332
331
324
312
305
325
380
455
523
541
482
401
353
328
317
317
322
328
328
326
324
325
325
326
327
328
328
329
330
332
333
335
338
340
341
343
345
348
351
353
357
362
365
368
372
376
381
384
389
393
396
397
394
389
382
373
364
355
347
337
330
325
319
316
315
314
312
313
314
313
312
312
313
313
313
315
314
315
314
314
315
315
315
316
318
319
319
318
319
319
321
323
324
323
323
323
323
322
322
322
323
322
322
322
323
322
323
323
323
323
323
323
324
323
324
325
324
324
325
325
325
324
325
326
326
327
327
328
327
328
330
330
330
331
332
331
331
331
330
330
331
334
337
339
341
346
350
352
353
353
353
352
351
351
349
344
338
333
329
331
331
333
332
330
323
313
306
322
377
455
530
558
509
419
364
336
324
322
327
333
334
331
329
330
331
332
333
335
338
340
340
342
343
344
346
348
349
351
354
358
361
365
368
372
377
382
388
392
395
396
400
404
405
405
405
401
394
385
376
367
358
349
342
334
329
327
324
322
320
321
322
323
322
322
322
323
325
327
327
328
327
327
328
329
331
331
332
333
333
333
331
331
330
329
330
331
331
331
331
331
331
332
332
332
332
334
334
336
335
335
335
335
334
333
332
331
332
330
330
331
331
329
329
329
330
333
334
335
335
339
343
345
345
345
345
345
345
345
342
337
333
327
327
329
329
329
328
327
320
311
303
314
363
433
504
534
487
399
347
320
307
310
320
329
333
332
330
330
331
333
335
335
336
339
340
340
342
344
347
349
351
354
355
359
361
364
368
371
375
377
382
385
390
394
396
397
399
401
399
395
387
378
368
357
347
339
332
326
321
318
315
313
314
314
314
314
315
316
316
316
316
317
317
317
318
320
320
320
322
323
323
323
322
322
322
322
322
321
320
320
320
320
320
320
320
320
320
320
320
320
322
325
324
323
323
323
324
326
328
327
328
328
330
333
334
336
339
345
347
348
349
349
348
349
351
348
345
341
338
333
332
333
334
334
334
331
323
313
310
336
395
468
522
522
448
377
339
319
314
320
329
336
336
334
334
334
336
337
339
341
342
344
347
348
349
352
354
358
360
363
368
372
377
381
386
390
394
400
406
411
414
417
421
423
424
424
421
417
410
400
390
379
371
366
362
357
353
351
350
348
347
347
346
345
346
347
347
348
349
350
350
352
354
355
355
355
354
353
353
352
353
353
352
352
353
352
352
352
351
350
348
349
350
351
349
349
348
347
347
347
347
347
348
347
347
346
346
346
347
347
347
349
348
350
350
351
352
355
359
362
363
364
363
362
362
362
360
356
351
346
343
343
342
342
343
341
335
324
317
331
379
451
522
548
499
414
362
337
325
325
331
337
339
335
334
333
334
336
337
338
340
340
343
343
344
344
345
346
348
349
351
352
357
360
363
365
368
370
373
378
382
383
380
378
375
373
370
365
357
348
337
328
318
308
300
292
287
283
280
280
279
277
277
277
278
279
279
280
280
280
281
283
283
282
281
282
282
283
283
284
285
285
286
287
286
286
287
287
286
286
288
289
289
290
290
290
291
293
294
294
294
295
296
297
297
297
297
297
297
298
298
298
301
303
305
307
309
313
318
320
322
323
322
321
322
323
322
319
315
309
307
306
307
306
307
307
304
295
284
286
322
391
472
530
523
441
370
333
312
305
308
317
321
320
319
320
321
323
325
327
327
329
332
335
337
338
341
345
346
347
349
352
355
358
362
366
371
374
378
382
386
390
394
396
398
400
400
397
392
383
373
364
354
345
337
330
326
323
323
320
319
320
320
319
321
322
323
325
326
328
330
330
331
333
334
336
337
338
340
339
340
344
346
349
352
354
356
356
359
360
361
364
367
368
369
370
373
375
376
378
380
382
384
388
391
392
392
394
398
400
403
407
410
411
413
412
412
411
409
408
406
402
397
391
389
389
390
391
391
389
384
374
365
369
405
470
542
584
557
471
408
376
361
362
371
384
390
388
386
387
389
390
392
394
394
393
395
396
400
403
405
407
408
410
414
411
386
365
355
354
354
354
357
361
365
367
372
375
378
379
380
380
375
368
360
352
344
337
330
324
323
323
322
324
325
327
329
330
333
337
340
342
343
344
347
350
352
356
358
361
361
363
365
367
367
368
368
368
368
368
368
368
368
369
370
370
370
372
373
374
374
375
376
376
376
376
376
376
377
377
377
379
380
381
384
388
389
390
389
388
388
388
388
386
381
375
368
366
367
367
366
365
362
357
346
336
347
394
463
531
558
513
427
374
345
331
333
341
348
349
347
345
343
342
343
343
343
343
349
364
380
390
400
407
412
417
422
426
430
433
436
441
444
448
452
455
459
462
465
468
467
468
469
465
459
453
445
434
422
413
405
397
391
387
383
380
378
378
377
376
374
374
373
372
370
370
369
370
370
369
36
367
367
367
366
365
365
364
363
361
360
359
358
358
358
357
354
352
351
350
349
349
349
348
345
344
343
341
340
341
340
339
338
338
338
337
337
339
340
340
343
347
348
348
349
348
348
346
344
343
338
331
325
321
321
321
322
320
318
313
303
292
296
337
409
484
529
505
419
356
322
306
301
305
312
316
315
314
312
314
315
316
317
319
320
321
323
325
327
329
330
332
334
336
339
341
344
346
351
355
359
364
369
376
382
386
390
394
395
394
391
384
375
365
354
345
336
329
324
320
316
313
312
311
311
312
313
314
313
311
311
311
312
312
312
312
311
312
313
314
314
314
313
313
312
312
312
312
312
313
312
311
312
311
310
309
310
309
308
308
308
309
307
306
307
308
307
308
310
310
311
312
313
315
317
320
324
326
327
327
327
327
328
328
326
323
317
311
306
303
303
304
303
302
299
294
283
275
290
344
419
492
523
472
380
326
298
285
286
295
304
304
302
301
301
303
304
306
306
305
306
309
312
314
315
317
319
321
324
327
331
334
337
341
345
349
354
357
361
366
369
372
375
376
376
374
371
365
357
347
337
327
318
313
308
303
300
300
300
299
299
299
299
299
301
301
302
302
303
303
304
305
306
308
308
308
308
309
309
310
311
310
311
311
313
313
313
313
312
311
311
311
311
310
310
311
310
311
311
311
311
311
313
313
315
317
319
322
325
330
333
335
335
333
333
334
335
333
330
324
317
313
315
316
316
315
314
312
305
296
294
319
378
450
505
502
424
353
317
296
291
298
310
319
321
320
319
320
321
322
325
327
329
332
332
333
337
339
341
342
346
347
349
352
356
358
361
364
369
373
375
377
381
385
388
390
393
391
387
384
375
367
357
350
341
332
325
322
320
318
317
318
318
318
317
318
318
319
321
322
324
323
324
325
327
326
327
328
328
328
328
329
330
332
333
333
333
332
332
332
331
330
329
331
330
330
331
331
331
332
332
331
329
330
331
330
330
332
334
336
338
340
344
348
350
352
353
353
352
352
351
349
346
341
334
329
330
332
332
331
331
328
320
310
312
346
411
485
534
519
436
369
335
317
314
321
331
336
335
334
334
334
334
336
337
337
337
338
339
341
342
345
346
346
349
352
353
355
358
362
365
368
371
375
380
384
388
391
393
394
395
395
392
388
380
370
359
348
338
331
324
319
315
313
311
312
312
312
311
310
309
308
310
311
313
313
313
314
315
315
315
318
318
318
318
319
320
321
322
322
322
321
322
322
321
320
318
318
318
318
319
319
318
318
318
318
319
319
320
321
321
321
321
320
322
325
326
327
329
335
338
339
339
338
339
339
338
338
335
329
324
320
321
321
322
321
320
318
311
300
296
325
389
468
531
532
455
378
336
314
305
308
316
321
321
320
319
319
319
320
321
322
324
325
326
328
331
333
334
336
339
343
345
347
351
354
358
363
368
371
375
380
384
387
389
392
393
392
388
384
377
367
358
349
341
331
324
319
316
313
313
315
316
313
312
314
314
315
316
316
316
317
319
319
319
319
321
321
321
322
321
321
323
322
321
320
323
323
327
327
327
326
325
324
323
324
324
324
325
325
326
326
327
327
327
328
328
329
329
329
329
330
330
330
332
335
336
337
339
344
349
352
353
351
350
350
351
350
345
339
335
332
332
332
330
331
331
329
320
308
305
329
389
466
532
542
467
385
341
317
308
312
324
333
334
331
330
332
333
335
336
338
339
342
343
343
344
346
349

351
353
354
356
360
365
369
372
376
380
384
387
391
395
397
397
398
396
396
390
382
372
362
352
343
337
330
326
323
320
319
318
318
318
319
320
319
319
319
320
321
321
322
324
325
326
325
325
325
326
326
326
327
329
328
329
329
330
329
328
328
328
327
326
327
326
327
327
327
326
326
327
326
327
327
327
329
330
331
333
335
337
342
346
348
348
348
348
348
348
346
342
338
329
326
327
327
327
327
327
324
316
305
306
338
402
475
525
510
426
361
327
308
306
316
327
330
330
329
329
329
329
329
329
331
333
334
335
337
339
341
342
344
347
350
352
355
358
360
364
367
371
375
378
381
384
388
390
393
394
393
391
386
379
368
356
346
338
333
327
323
320
319
320
319
319
319
319
320
320
320
321
323
323
324
324
326
326
327
328
329
329
328
329
331
331
330
331
331
332
332
332
332
331
332
333
333
333
331
331
331
331
330
329
329
330
331
330
329
329
329
330
329
329
330
332
334
336
338
343
346
348
349
349
347
347
347
346
341
335
329
324
324
325
324
323
323
322
314
302
301
332
397
474
533
531
451
377
338
317
309
312
319
324
322
320
320
322
323
324
326
327
329
331
333
335
337
338
340
341
343
346
348
349
352
356
361
365
369
372
376
379
382
388
391
393
394
394
392
388
381
371
361
350
342
333
326
320
315
314
313
312
313
315
314
314
315
318
320
322
323
323
324
325
326
326
326
326
327
328
328
329
329
330
330
330
332
333
332
332
331
330
332
331
330
331
330
329
328
326
326
326
327
328
328
328
329
329
329
329
329
329
330
332
332
332
332
332
334
337
339
341
347
354
355
354
353
351
350
350
349
347
342
337
332
331
333
333
333
333
329
319
307
308
342
411
490
549
542
460
385
345
324
317
318
327
332
330
329
329
329
329
331
334
335
335
337
339
339
340
342
344
346
348
350
352
356
360
364
367
369
373
378
382
386
389
391
395
397
398
399
397
391
382
371
360
349
340
333
328
324
321
318
315
314
313
313
313
314
313
313
313
314
315
316
315
316
316
317
319
319
318
319
320
320
322
321
321
321
321
321
321
322
323
323
324
325
324
324
324
324
324
325
324
325
325
324
325
326
326
328
329
330
330
332
334
335
336
340
345
348
348
349
348
347
347
346
344
338
332
325
323
324
324
324
325
324
320
312
302
303
335
397
471
524
512
427
357
321
304
303
312
324
329
329
328
327
329
330
331
333
334
334
335
337
339
341
343
345
348
350
352
356
359
362
365
369
373
377
380
384
387
391
394
396
398
398
397
393
386
376
367
358
349
340
332
326
321
318
317
314
312
312
313
313
312
312
312
312
311
313
314
315
316
317
318
318
319
319
320
321
322
324
325
325
324
325
325
325
323
324
324
323
324
324
325
324
323
323
323
324
325
324
325
326
326
327
326
325
326
325
324
323
324
326
326
325
325
326
326
328
331
333
336
337
343
347
348
350
349
348
347
346
346
343
337
331
326
325
326
326
325
326
324
316
305
304
334
397
472
528
526
448
374
335
314
308
312
320
325
325
323
322
324
326
328
329
331
333
334
336
338
339
340
341
344
346
348
350
353
356
359
363
368
372
375
379
384
387
391
393
395
396
396
394
390
382
372
362
352
343
337
331
324
318
316
315
314
314
314
314
314
314
315
316
314
315
316
316
317
318
319
321
320
321
322
322
323
323
325
324
324
325
327
327
327
328
328
329
328
330
330
330
328
328
329
329
329

328
326
326
326
327
328
326
327
326
326
327
328
328
327
327
327
327
327
328
328
328
328
330
330
332
335
337
338
341
347
351
351
350
350
351
352
351
351
348
343
337
332
330
331
332
332
332
330
322
312
309
341
408
489
546
540
458
382
343
322
316
320
329
333
332
331
330
330
332
334
333
334
336
335
337
338
342
343
344
346
348
350
352
355
358
360
364
368
372
374
378
382
387
391
394
398
400
400
398
394
386
377
368
358
347
340
333
327
323
320
317
317
317
316
316
315
315
317
319
320
321
321
322
322
323
323
324
325
326
327
327
326
326
328
328
327
328
329
329
328
328
329
329
329
329
329
330
329
328
328
328
327
327
328
327
326
326
326
327
327
328
328
328
327
328
329
327
327
327
326
326
328
329
329
330
332
332
333
334
337
338
341
343
348
352
353
353
353
353
352
351
349
344
339
333
329
328
329
329
329
328
324
315
305
303
330
393
472
537
543
465
382
337
314
307
312
321
327
327
326
325
325
327
328
329
332
334
336
336
339
339
340
342
345
347
349
351
354
357
361
365
368
373
376
381
386
389
391
394
398
399
399
396
391
385
375
366
357
348
338
330
325
322
319
317
315
314
314
315
315
315
315
315
317
317
320
321
320
319
319
320
320
320
321
322
322
323
323
324
325
324
324
325
325
325
325
325
325
326
327
327
326
325
327
328
328
327
328
328
328
328
328
329
331
331
331
331
330
333
335
336
338
341
346
348
350
350
350
349
348
348
348
345
338
330
326
326
328
329
327
326
325
319
307
304
327
382
453
515
527
458
379
336
312
304
310
323
333
334
332
331
331
330
330
333
334
335
337
340
341
342
343
345
346
347
350
354
357
360
363
367
370
372
376
380
384
387
389
393
395
395
394
392
387
380
372
363
352
342
335
329
324
320
318
316
315
314
314
313
312
313
314
314
314
315
314
314
314
316
317
317
317
318
319
318
317
319
320
320
320
321
322
323
323
321
320
321
322
323
324
324
326
325
324
323
323
323
322
322
323
325
324
324
324
325
326
326
327
327
328
330
332
334
336
340
344
346
348
349
347
345
345
345
344
339
332
327
326
326
326
328
327
325
319
309
302
322
376
450
516
532
472
391
344
320
311
314
322
330
331
329
328
328
330
330
332
334
335
336
338
340
343
343
344
346
348
349
351
354
356
359
361
365
370
372
376
381
384
387
389
392
393
393
391
388
382
374
365
354
346
337
330
323
319
315
313
313
312
313
314
316
316
315
316
315
315
315
315
314
314
315
316
317
317
318
319
319
320
321
322
322
322
324
324
324
323
323
324
325
325
325
325
326
326
327
327
326
325
326
327
327
328
328
327
327
328
328
327
327
328
328
330
334
335
337
338
343
345
345
345
346
345
344
344
344
342
337
332
327
327
329
329
329
330
326
318
308
306
333
395
473
537
545
473
393
348
325
318
321
329
333
333
332
330
330
331
332
334
336
337
338
340
341
343
345
346
349
351
353
355
357
360
364
367
371
375
378
383
387
391
393
396
399
401
402
402
398
391
381
370
359
351
342
334
328
324
322
322
320
319
319
321
321
320
320
321
323
324
325
325
324
324
324
324
324
324
326
329
329
330
331
332
332
332
332
333
332
331
332
333
332
333
333
334
334
334
333
333
334
335
333
330
330
331
332
333
332
333
334
333
335
337
341
343
347
353
357
357
355
354
353
355
354
352
347
341
334
333
333
334
334
333
332
325
315
306
314
357
0
508
551
517
423
359
327
311
310
318
328
331
331
330
329
329
330
330
330
331
333
335
336
337
340
342
344
347
349
350
352
356
359
362
368
372
377
380
384
389
392
395
397
398
397
396
393
387
378
367
357
348
338
330
324
321
319
317
314
313
312
312
311
311
311
312
313
314
314
317
318
319
319
320
321
319
317
318
319
321
321
321
321
321
322
323
324
325
326
326
326
326
326
327
328
328
328
329
328
328
331
331
330
331
332
336
338
340
345
349
350
350
350
350
351
350
349
346
339
332
328
327
330
331
330
329
328
322
310
304
323
376
446
507
519
451
373
330
308
300
306
319
330
332
331
329
327
329
330
333
335
335
337
339
341
342
344
346
348
350
353
355
358
362
366
369
373
375
378
383
386
389
390
393
395
395
394
393
389
381
371
362
351
342
334
329
324
319
316
315
314
314
314
315
316
315
316
317
317
317
319
320
320
321
322
323
323
325
327
327
326
326
326
327
328
329
330
329
328
327
326
325
325
325
325
325
325
325
325
324
324
325
326
327
327
330
333
334
336
338
341
345
349
349
350
349
349
350
347
344
340
334
328
328
328
329
330
330
327
320
309
302
317
368
440
508
530
476
393
345
319
308
310
319
330
332
331
330
330
332
333
335
334
335
336
337
338
339
341
343
345
346
348
351
353
356
358
362
367
370
373
377
380
385
389
391
392
394
394
393
388
382
372
363
352
344
337
331
326
322
320
319
319
317
317
317
316
317
319
318
319
319
319
318
319
319
320
322
323
324
324
324
324
324
325
326
326
327
327
327
328
328
328
328
327
325
324
325
325
325
324
325
326
326
326
328
329
330
331
333
336
340
342
343
345
345
342
342
341
339
336
330
322
318
319
320
320
320
320
316
306
295
298
336
405
482
530
512
427
360
325
308
304
309
318
321
319
318
319
319
320
322
324
325
325
325
328
330
332
334
337
340
342
345
346
348
350
355
359
363
368
373
378
381
383
387
391
392
392
390
386
380
373
362
351
341
333
326
319
316
314
314
312
312
313
313
313
312
312
313
313
313
314
314
314
315
316
315
316
318
320
320
321
322
322
322
323
324
325
324
324
324
324
324
325
326
327
328
328
329
327
326
327
327
326
326
329
334
336
337
339
345
349
351
351
351
350
350
350
347
343
339
334
330
330
331
330
330
331
331
323
311
305
328
388
465
535
547
479
394
345
321
311
313
321
328
329
328
327
327
326
330
332
334
336
336
336
338
342
344
346
349
351
352
355
359
361
364
367
371
374
379
385
388
391
394
396
400
401
400
398
391
382
371
361
350
340
332
327
321
318
317
317
315
315
315
314
314
315
315
315
314
315
317
317
316
320
321
322
322
323
325
324
323
324
325
323
323
323
324
324
324
326
327
327
326
326
325
325
326
326
326
325
325
326
327
327
331
333
335
336
341
345
347
348
348
348
347
346
345
344
339
333
326
325
325
327
328
327
326
323
312
302
308
347
414
486
528
498
411
349
319
303
305
314
325
330
329
327
329
330
332
332
334
336
338
341
344
345
345
346
349
352
354
356
359
361
364
368
373
375
378
382
386
389
391
395
397
397
398
395
391
383
375
364
356
347
340
334
329
325
324
322
320
319
319
318
318
318
317
317
318
318
320
320
321
320
322
324
324
324
325
324
324
324
325
325
325
328
329
329
329
328
327
327
327
326
327
328
328
328
329
329
330
329
329
329
330
330
329
328
329
329
331
333
336
338
340
343
347
350
351
352
351
349
350
350
349
345
341
336
334
334
333
333
334
334
330
321
310
312
349
417
492
539
517
433
370
336
320
317
323
332
335
335
334
332
334
336
335
336
338
339
340
340
342
345
346
347
349
349
350
352
356
359
363
368
371
374
377
381
384
387
389
391
395
395
393
388
382
372
362
352
343
335
329
325
321
318
314
314
315
314
314
315
315
317
317
317
318
318
319
319
318
317
318
319
321
321
322
322
321
322
324
325
324
324
325
326
325
323
324
325
324
324
324
324
325
325
325
325
324
324
326
325
325
325
326
326
326
326
328
328
328
329
330
329
331
331
332
332
332
333
334
333
333
333
333
333
335
337
338
339
342
346
352
354
354
355
354
353
351
351
348
344
338
332
329
330
331
332
330
328
321
311
304
326
384
460
529
547
487
403
354
330
317
316
324
330
329
326
324
325
325
326
327
328
329
328
330
331
333
336
336
339
341
343
345
348
352
355
359
363
367
371
377
380
383
387
393
395
397
398
397
393
386
378
368
359
349
341
334
327
322
319
318
317
316
316
315
315
316
317
316
316
318
319
319
320
321
320
320
320
321
322
322
322
323
324
323
322
323
325
326
327
326
326
325
326
327
327
327
327
326
327
326
326
326
326
325
325
325
325
326
327
329
329
329
330
329
330
330
328
329
330
330
331
331
331
330
331
331
330
331
331
331
332
332
332
334
337
339
342
347
352
353
353
354
356
357
356
356
355
350
344
338
335
337
337
336
335
335
331
320
310
320
367
440
517
556
519
427
367
334
317
317
325
333
335
333
333
333
333
334
336
338
338
341
341
341
342
345
346
348
350
352
355
358
360
363
365
367
371
374
376
381
386
391
395
397
398
400
400
397
393
384
374
364
355
346
338
330
325
324
321
319
318
318
318
318
318
318
319
320
321
322
323
323
324
324
325
327
329
329
328
329
329
330
330
330
330
329
329
331
329
327
327
328
329
330
330
331
330
330
332
332
332
331
329
329
330
330
331
332
331
330
332
334
333
333
332
332
334
335
337
337
338
341
346
350
352
353
352
350
350
349
349
346
341
336
332
330
331
333
333
334
333
327
316
308
322
368
436
505
534
486
400
348
322
310
313
323
333
336
336
336
335
335
334
338
338
340
342
343
344
345
348
350
352
352
354
357
360
363
367
369
372
375
380
385
388
391
393
397
397
399
398
396
390
384
377
367
357
346
338
333
327
322
319
317
315
314
314
315
315
317
316
315
316
318
320
320
320
322
323
323
323
324
326
327
327
327
329
329
330
331
331
329
329
331
331
331
332
332
332
332
332
332
332
332
334
336
334
334
333
333
333
333
333
332
332
333
335
336
337
339
341
345
347
349
350
349
349
350
350
348
343
340
334
331
331
332
332
330
328
323
314
307
317
363
431
499
528
486
403
351
325
311
312
319
327
330
328
327
328
329
330
331
331
331
331
332
335
337
338
339
339
340
343
345
349
351
354
358
363
366
370
374
378
381
385
387
389
390
390
390
387
381
372
363
355
345
335
329
324
320
318
317
314
313
314
314
314
315
316
317
318
320
321
322
323
323
324
325
326
327
329
329
330
331
332
332
331
332
332
331
330
330
330
330
328
328
327
327
327
329
329
328
327
327
329
329
328
329
329
329
328
327
327
328
329
330
330
331
333
334
334
337
340
341
341
341
341
340
340
340
341
338
335
329
325
324
323
325
324
323
318
306
300
314
366
440
512
540
493
410
358
331
388
16
320
326
327
326
325
325
325
327
328
328
329
330
330
331
333
335
338
340
342
345
347
349
351
353
356
361
366
372
377
381
386
389
392
394
397
397
396
394
389
379
368
358
349
339
332
326
322
319
317
317
316
316
317
317
318
319
318
318
319
320
321
322
322
322
325
325
325
326
326
327
327
327
328
328
328
330
329
329
329
329
329
328
328
329
329
329
329
330
331
330
329
329
330
329
330
331
332
333
333
333
333
333
334
334
335
335
336
337
338
339
342
342
344
348
351
352
352
352
352
350
350
348
345
339
333
330
330
331
330
330
328
323
311
302
313
360
435
513
554
518
429
369
339
323
320
325
333
334
333
333
334
334
334
334
335
336
338
338
340
343
344
346
348
350
351
353
355
359
363
365
369
372
376
380
383
387
391
394
394
397
399
398
394
390
383
374
364
355
346
338
331
326
321
318
317
317
317
316
317
317
318
319
319
320
321
321
321
322
323
325
327
327
327
325
326
326
327
326
326
326
326
324
325
325
325
325
325
325
325
326
325
324
324
325
324
324
324
325
326
327
328
328
329
331
330
330
331
333
335
337
338
339
340
344
348
350
350
350
348
348
349
351
348
343
337
331
329
329
329
330
330
330
325
314
303
312
356
425
496
533
491
404
349
320
305
306
316
327
332
332
330
330
331
332
333
334
334
335
336
337
338
339
340
343
346
346
349
352
355
359
362
365
368
371
374
379
383
387
388
389
391
392
391
387
382
374
365
355
346
338
331
325
321
319
318
317
316
316
316
316
316
317
318
317
319
320
320
320
321
322
323
323
324
327
327
326
326
326
327
328
329
329
330
329
329
330
328
328
329
329
330
331
331
331
332
334
335
334
332
332
333
332
332
332
335
334
334
334
336
336
336
337
339
341
342
346
348
351
354
357
358
357
356
356
356
355
351
346
338
335
335
338
336
336
335
331
323
312
313
347
411
485
537
525
444
378
344
325
321
326
336
340
339
338
337
337
337
338
339
339
342
343
345
347
348
350
352
354
356
359
361
363
365
368
371
375
379
383
385
389
392
395
398
399
399
399
397
392
385
376
367
357
348
341
336
331
327
325
323
323
322
321
321
322
323
323
323
324
326
324
322
323
325
325
325
325
325
326
325
327
327
328
330
330
330
330
331
331
331
330
331
330
331
331
332
333
333
332
332
332
332
332
332
331
332
332
333
333
333
334
335
334
334
334
333
334
333
333
333
332
333
335
336
336
336
338
340
342
344
345
350
352
354
354
354
353
352
351
350
346
341
336
331
329
330
332
331
330
328
320
308
306
337
402
481
542
542
464
388
346
325
317
319
327
332
331
330
330
331
331
331
333
334
336
338
339
340
340
341
344
346
349
352
355
357
359
362
366
369
373
376
381
385
389
392
396
398
400
401
399
396
388
380
370
361
350
342
334
328
323
320
318
317
316
314
313
314
314
314
314
314
316
317
317
317
317
319
320
321
320
320
321
323
323
323
323
324
324
323
321
321
323
324
322
325
324
321
320
322
323
324
325
327
327
326
323
326
329
328
326
328
328
327
327
327
328
328
331
332
332
331
332
333
334
336
339
344
348
349
349
349
347
345
344
343
338
332
327
323
324
326
325
324
323
319
308
294
296
337
407
484
538
523
436
368
331
311
306
313
323
326
324
324
325
325
322
324
326
328
329
329
332
333
335
338
340
343
345
345
347
350
353
355
359
365
369
371
376
379
382
386
388
391
394
396
393
385
376
368
360
350
337
332
329
327
322
318
316
313
313
314
316
319
320
319
320
324
322
318
320
324
325
330
330
328
328
330
331
333
333
334
334
336
333
331
332
333
335
337
335
332
332
334
333
338
339
335
336
337
335
331
333
337
336
339
342
343
347
350
352
357
355
354
359
358
360
357
356
353
348
342
337
336
337
339
339
340
341
331
322
315
322
362
422
483
514
472
403
359
330
317
319
330
339
343
342
341
343
344
345
346
348
350
352
354
355
359
356
362
368
363
354
352
361
371
369
366
365
372
382
388
379
379
388
391
391
391
391
387
379
369
366
355
344
334
332
328
322
316
314
313
311
309
306
308
312
311
312
313
312
311
308
308
310
309
307
315
318
311
314
320
317
311
317
320
318
321
327
329
319
308
306
313
320
316
322
319
311
311
320
330
327
316
315
321
325
322
317
324
326
328
331
331
328
338
341
336
344
343
339
343
343
338
324
313
322
330
330
323
318
318
310
296
285
302
355
425
491
518
468
387
337
317
311
316
318
319
322
325
321
318
320
320
320
325
326
330
333
330
327
329
328
335
339
344
344
341
338
347
351
351
357
360
364
368
373
376
380
376
380
385
383
373
373
369
357
350
347
338
329
323
307
310
320
324
322
320
315
315
321
316
312
325
336
326
319
307
319
337
343
340
320
316
325
335
339
338
333
324
318
326
328
316
310
299
342
367
362
350
345
338
323
340
362
359
363
357
348
360
372
380
370
364
366
353
351
364
366
359
359
349
343
352
348
341
344
380
438
488
537
546
492
409
349
339
358
352
347
358
394
381
379
373
363
370
391
403
391
370
378
440
484
511
530
547
557
561
570
578
595
604
593
586
587
580
596
607
612
618
602
583
577
599
592
572
552
569
530
516
509
519
520
489
488
484
473
489
500
492
501
499
477
490
462
435
462
509
496
466
469
455
452
460
447
416
457
473
481
446
425
415
432
454
462
448
455
445
435
440
434
432
445
464
441
442
412
388
381
401
416
398
415
417
411
383
361
360
394
442
511
571
551
472
429
396
377
356
352
383
375
366
362
383
398
385
371
359
360
356
363
383
388
389
363
376
374
389
388
380
352
359
397
393
380
391
394
389
394
404
399
381
401
422
398
376
363
359
359
343
339
365
358
322
288
297
310
322
326
324
306
320
321
322
308
308
310
310
315
301
302
322
324
325
342
323
315
296
278
305
342
324
306
318
327
315
324
330
304
322
332
336
342
345
338
309
300
289
303
316
318
307
301
318
309
273
274
265
276
348
426
479
485
425
368
336
305
258
274
321
327
298
291
297
302
290
310
326
308
278
300
312
312
312
305
303
302
324
318
313
316
297
322
335
306
291
308
302
293
308
292
285
285
268
266
266
239
230
234
230
212
187
182
185
186
182
177
179
179
175
170
183
174
195
199
192
187
190
177
177
183
202
187
205
210
191
195
197
199
220
219
207
198
204
210
204
206
230
228
211
215
222
241
244
240
211
219
237
234
244
235
227
218
209
217
235
222
216
228
212
200
219
289
362
419
417
348
278
274
258
231
200
230
256
246
246
249
249
240
249
263
248
247
252
254
236
248
273
283
280
274
276
276
280
297
304
302
296
307
305
299
303
330
341
329
341
344
335
305
301
325
320
287
284
293
274
275
281
282
279
261
256
277
275
279
275
249
248
284
293
298
295
278
274
296
295
297
303
276
301
326
318
298
293
305
301
325
342
329
316
302
308
295
299
339
340
338
341
337
324
319
320
332
315
344
373
372
360
365
344
351
366
357
331
330
361
363
357
366
367
352
344
332
348
367
368
413
489
549
567
506
404
357
327
321
294
277
297
315
305
312
299
283
290
324
324
325
338
333
312
321
329
345
345
308
310
331
368
401
405
369
347
357
383
408
415
405
386
368
406
436
419
443
459
460
437
403
376
441
477
450
434
438
435
430
444
461
514
523
524
525
518
513
482
490
524
542
533
519
537
529
507
467
498
567
561
538
527
505
459
499
530
540
524
496
506
508
498
486
492
485
491
502
470
463
486
511
516
497
462
471
485
461
457
483
505
509
510
518
499
458
454
473
480
497
474
448
444
449
450
454
433
409
421
426
463
538
625
650
608
525
485
438
419
412
411
427
467
462
402
373
383
387
426
447
431
406
408
442
445
414
397
400
388
373
410
424
414
427
435
437
409
415
426
427
437
464
479
462
418
392
419
400
428
448
414
373
381
381
367
352
336
338
356
353
322
320
308
319
346
345
331
316
326
325
327
340
345
339
320
294
284
316
346
333
338
340
332
318
325
330
315
304
292
302
326
330
306
284
292
305
325
304
322
315
311
307
326
339
326
311
291
286
292
265
243
230
179
125
110
102
84
64
50
55
63
48
34
21
6
0
0
0
0
0
0
28
97
136
129
44
0
0
0
0
0
0
0
0
0
0
0
0
0
0
0
0
0
0
0
0
0
0
0
0
0
0
0
0
0
0
0
0
0
0
0
0
0
0
0
0
0
0
0
0
0
0
0
0
0
0
0
0
0
0
0
0
0
0
18
41
55
68
73
61
48
67
76
60
40
29
36
57
54
26
14
49
51
31
12
9
20
56
89
94
57
21
27
32
33
49
57
61
49
70
95
73
45
52
74
93
90
88
91
82
64
49
46
48
55
71
84
72
45
38
55
57
49
73
84
83
85
98

151
125
168
182
154
133
157
191
197
195
207
201
247
221
217
215
206
230
235
217
232
226
227
229
239
269
267
227
192
239
320
363
427
449
380
320
328
295
257
247
283
296
271
294
319
315
289
304
319
335
355
325
320
302
315
339
336
306
328
376
392
368
356
343
342
378
404
402
391
395
402
420
418
406
406
406
415
403
405
398
399
370
355
369
380
362
348
350
369
369
368
396
376
350
328
350
376
410
409
369
351
369
398
421
388
368
361
381
386
408
405
395
377
388
395
394
396
391
388
411
406
385
373
412
427
397
381
398
434
417
429
440
406
373
387
412
421
430
448
427
421
427
434
420
422
424
430
420
405
407
424
458
447
419
398
390
406
440
495
555
560
546
500
454
424
413
417
452
456
435
438
432
429
447
470
474
475
457
435
446
462
467
466
465
477
473
460
443
447
487
496
478
473
489
502
491
484
482
491
518
516
506
468
472
496
516
515
485
462
453
462
475
462
430
423
450
469
456
444
437
425
435
438
458
463
439
453
454
452
443
440
446
452
431
407
429
442
457
444
425
435
448
447
438
441
444
421
432
444
452
441
426
415
424
449
452
439
436
430
436
457
459
436
409
414
428
424
429
420
396
400
434
429
395
395
413
437
490
544
544
485
436
413
373
368
387
404
417
410
415
422
402
397
400
387
387
406
397
399
410
418
409
408
411
384
383
408
412
402
392
418
431
434
427
423
409
421
429
414
412
409
432
427
409
412
396
372
359
369
381
375
380
374
360
359
376
384
379
367
359
369
362
350
387
389
352
346
362
369
366
350
351
360
368
366
372
343
351
362
366
358
348
357
358
360
357
349
353
351
373
377
343
331
357
363
355
358
364
367
354
344
362
377
374
368
359
334
315
370
382
352
348
350
354
360
348
351
358
326
335
380
394
376
356
347
355
353
367
336
335
370
366
356
373
381
358
352
360
355
323
320
338
336
348
336
320
319
348
339
321
344
408
462
494
449
376
360
353
333
321
299
297
322
348
364
355
329
308
325
338
315
309
345
358
339
320
320
328
331
340
338
332
323
315
324
359
353
337
331
352
366
323
331
396
387
325
354
419
374
382
357
351
343
322
366
336
274
247
230
268
290
314
303
285
285
282
303
316
349
341
340
288
282
288
297
342
331
339
347
302
258
241
262
292
297
263
239
316
349
357
321
308
318
296
304
329
331
336
351
313
281
296
318
361
327
289
313
349
360
346
308
243
322
357
351
321
328
343
384
390
341
320
308
343
319
314
364
384
384
396
391
349
352
329
348
364
362
297
332
372
384
385
352
326
292
333
446
479
487
497
458
366
351
358
364
357
347
386
374
338
327
365
368
339
320
325
378
382
353
361
359
370
383
387
363
356
351
384
400
375
353
371
401
391
403
402
401
399
402
395
385
398
410
374
373
385
380
342
341
343
369
402
387
324
297
324
336
372
364
349
314
312
320
308
329
351
371
344
318
342
343
335
342
331
316
319
371
412
390
309
267
287
329
362
359
348
331
333
340
338
351
388
360
306
316
331
332
321
348
378
361
319
319
334
343
353
337
356
356
383
377
339
317
314
334
350
349
347
361
330
313
309
329
320
321
322
355
427
522
538
450
335
339
350
352
357
333
305
300
322
356
330
286
287
339
336
347
344
320
317
328
351
343
344
330
334
341
346
346
348
357
351
363
362
360
356
367
382
371
378
396
380
353
355
353
348
327
334
345
347
326
331
311
323
327
328
328
335
310
306
308
310
301
311
343
330
319
331
310
301
353
348
316
322
330
324
322
337
346
336
314
282
287
298
317
342
351
353
339
321
290
278
292
315
329
332
331
331
349
344
359
377
340
319
322
334
355
348
334
336
322
323
346
331
301
299
327
324
304
280
319
417
483
516
489
437
390
327
308
329
348
349
334
332
351
355
312
296
315
344
346
344
324
315
334
343
340
345
355
347
364
352
337
348
368
359
350
356
369
384
385
370
363
380
396
387
384
393
389
380
355
337
351
350
342
325
324
322
328
335
328
335
326
318
327
342
329
313
324
335
340
345
328
321
320
339
341
322
313
346
358
338
321
321
326
338
336
345
331
317
331
352
339
345
354
357
345
332
350
356
364
370
386
379
389
389
387
392
386
380
386
373
356
357
363
354
349
364
365
345
346
352
380
429
511
560
531
455
424
403
380
366
376
396
408
394
384
400
382
390
382
379
377
392
390
388
401
415
412
393
400
423
429
438
434
428
423
415
410
420
442
440
443
454
462
457
439
450
444
441
436
428
437
409
386
351
322
321
335
355
330
341
315
291
290
307
314
287
261
291
289
275
261
289
279
258
264
240
268
288
268
255
249
270
261
243
254
248
248
245
226
226
247
248
231
231
243
230
231
249
236
249
260
259
258
254
235
239
266
257
240
240
245
250
235
250
244
245
251
258
250
232
246
310
377
444
457
385
317
282
263
252
281
289
294
296
305
302
297
293
332
342
344
350
358
366
365
373
384
399
409
412
407
407
405
430
448
452
447
450
456
461
482
564
682
708
708
708
709
709
709
709
709
709
709
709
709
709
709
709
709
709
709
710
709
709
709
709
709
709
709
709
709
710
709
710
709
710
709
709
709
709
710
709
709
709
710
709
709
709
709
710
709
709
709
710
710
709
709
709
710
709
709
709
709
710
709
709
709
709
710
709
709
709
709
709
709
709
709
710
709
709
709
709
709
709
709
710
709
709
709
709
709
709
709
709
709
709
709
709
709
709
708
709
708
708
707
708
707
707
707
706
706
705
704
703
697
684
671
663
657
656
651
647
640
627
624
631
627
617
608
597
585
573
559
541
523
516
506
493
483
476
469
462
454
450
444
434
422
425
426
419
411
406
401
396
391
387
385
382
380
375
370
367
362
355
351
349
348
344
340
335
331
329
326
325
326
330
326
321
319
320
319
318
313
307
294
282
275
271
268
264
265
262
256
252
243
227
219
234
283
346
401
412
358
290
250
227
214
215
219
224
220
217
214
213
212
210
209
207
207
206
204
204
203
204
202
201
202
202
201
199
198
200
202
202
202
203
205
203
205
208
208
209
209
208
204
195
186
176
167
157
149
143
136
133
132
130
125
123
126
126
125
124
125
124
122
122
123
120
122
123
122
123
123
123
121
122
123
123
119
122
125
125
125
124
125
127
131
129
132
137
141
144
145
146
144
140
131
123
124
124
127
126
125
125
125
123
118
104
97
107
153
222
291
323
285
209
159
131
118
121
128
137
139
137
138
140
140
140
141
145
145
147
150
152
154
155
159
163
167
171
171
174
178
183
186
189
194
199
206
210
213
215
219
222
224
223
221
219
214
206
198
189
183
176
172
169
167
167
167
171
173
174
174
175
177
178
183
185
188
191
196
199
202
203
204
204
205
209
211
216
218
219
222
223
223
226
227
231
239
243
244
245
250
258
260
265
262
260
251
246
246
249
249
248
254
258
257
255
246
237
235
262
321
396
460
469
398
324
282
257
250
256
266
276
279
277
275
275
275
276
280
285
287
289
289
289
291
293
295
299
304
307
307
309
311
314
320
319
323
329
332
335
339
341
341
345
346
339
335
332
323
312
299
293
286
286
282
277
273
271
269
269
273
274
273
276
277
275
278
280
279
283
286
284
286
287
286
285
287
290
291
292
291
291
292
292
292
293
291
289
293
295
298
303
303
304
311
316
315
313
305
296
291
292
289
289
289
291
288
284
280
271
259
257
291
354
423
471
455
379
322
288
268
266
273
288
295
297
297
296
298
299
298
299
302
304
306
308
313
314
317
320
322
326
329
332
334
338
341
344
347
351
355
361
363
366
368
371
375
375
373
369
362
353
344
339
332
326
321
317
316
314
312
313
315
314
314
314
316
315
316
318
318
316
321
324
324
325
325
326
328
329
329
329
331
332
331
329
331
332
335
334
334
333
334
335
336
341
345
347
349
354
356
357
359
357
349
341
338
336
337
337
339
341
339
338
333
323
310
316
358
422
491
530
499
420
368
337
320
324
329
336
338
338
337
335
337
337
336
339
342
342
343
343
342
344
345
347
349
352
352
352
356
358
361
365
367
370
372
376
376
376
378
379
380
381
378
375
367
358
348
340
333
328
324
321
317
316
316
315
312
313
314
315
314
316
316
314
315
316
318
317
318
320
320
321
320
321
320
319
319
320
321
323
322
322
322
321
322
320
321
324
326
329
329
330
330
336
340
339
340
338
331
324
318
316
317
317
319
319
317
318
315
305
290
289
324
393
468
518
503
425
364
332
312
306
313
319
321
321
320
318
319
321
320
320
322
325
327
325
324
327
331
334
336
336
337
339
343
345
348
352
356
360
363
365
368
369
371
373
374
375
374
370
364
356
349
342
334
328
323
321
321
319
318
319
318
318
318
319
320
323
324
323
324
324
327
328
327
329
331
332
333
333
332
331
334
335
336
337
336
335
336
334
335
335
335
334
333
333
333
331
330
331
333
333
335
335
333
334
335
333
334
336
339
343
346
348
350
355
359
362
357
354
347
339
336
335
334
334
334
335
336
331
322
310
309
340
403
477
534
529
451
382
346
326
320
321
330
337
336
334
333
333
333
334
336
337
338
340
341
343
345
348
351
352
353
356
358
360
361
363
368
372
373
374
378
381
384
387
390
393
394
393
390
387
381
371
363
356
349
343
337
331
328
327
325
324
323
324
324
323
324
325
324
326
326
325
325
325
325
328
330
331
331
330
330
330
331
328
329
331
331
329
329
330
330
330
329
329
332
333
333
333
331
331
331
332
333
330
332
334
333
332
334
335
337
337
336
336
338
337
338
338
337
337
339
339
338
338
340
345
348
350
350
352
357
361
361
359
357
353
346
338
336
337
338
338
339
338
336
329
317
315
345
408
483
541
535
453
383
345
325
318
321
329
335
334
334
334
331
332
336
338
338
338
338
340
341
342
344
345
346
349
352
353
355
358
360
364
366
369
373
374
377
379
380
381
382
384
386
384
379
372
365
357
347
337
332
327
322
320
317
315
313
315
315
315
314
314
314
315
316
318
320
322
323
325
324
323
323
324
322
322
322
322
321
320
322
324
324
322
324
325
325
323
323
324
323
323
323
323
323
323
326
326
327
327
328
330
329
329
329
331
336
341
340
342
347
352
353
351
350
348
340
333
330
328
326
325
329
328
325
324
316
304
300
324
380
449
503
504
429
363
327
307
303
311
323
334
335
333
332
333
333
336
337
339
340
341
342
344
344
345
349
351
352
352
355
357
361
363
366
370
371
373
376
380
379
382
384
385
384
383
381
375
367
358
348
342
336
331
326
322
320
319
319
318
317
318
317
317
319
319
320
321
322
323
323
322
321
323
322
322
325
328
329
327
327
327
326
325
324
324
325
325
326
326
325
323
325
325
326
325
326
326
325
325
327
330
333
334
335
339
344
348
348
346
343
337
328
325
323
323
324
323
321
323
322
315
304
298
316
365
431
487
497
435
367
330
306
299
306
316
325
328
326
323
326
328
329
329
329
331
333
334
335
336
338
340
343
346
346
349
351
354
358
359
362
364
368
370
374
377
378
381
382
383
383
379
376
370
362
355
349
344
337
331
327
324
325
324
323
325
324
325
326
326
325
326
328
328
328
330
330
329
331
333
332
332
333
332
334
334
334
336
336
337
337
336
335
334
334
334
334
334
334
334
333
332
335
337
342
345
346
345
345
349
353
355
354
349
341
335
329
329
329
330
331
329
329
325
318
307
301
322
378
448
507
512
444
376
339
317
310
316
325
331
332
331
330
330
331
332
334
335
336
337
339
341
342
343
344
345
348
350
352
353
354
358
360
363
366
369
372
376
377
379
382
385
385
383
380
375
368
361
354
346
338
332
327
324
322
317
315
315
315
317
318
319
322
322
324
325
324
322
322
324
325
326
326
326
328
326
326
326
327
326
328
329
328
328
329
331
331
330
329
329
331
332
331
331
331
332
331
332
333
333
332
333
334
339
343
344
344
347
352
354
354
351
345
337
330
328
328
329
328
328
328
329
323
311
304
309
351
418
488
526
492
411
356
328
311
311
319
329
332
332
331
332
333
333
334
336
335
336
335
338
9
340
341
341
344
348
348
350
354
357
361
364
367
372
374
376
380
384
386
386
388
388
387
384
376
367
359
352
344
336
331
327
323
321
321
319
318
318
319
318
318
320
322
320
320
321
321
320
322
324
326
325
324
323
324
326
326
327
327
326
329
329
327
328
329
331
329
328
327
328
329
327
329
328
329
329
329
329
328
329
330
330
331
331
333
340
342
340
341
346
352
354
353
351
349
343
334
331
329
329
330
332
331
329
326
319
311
306
326
384
457
518
525
457
382
340
319
311
313
324
332
333
330
329
329
331
333
333
333
333
334
335
337
340
340
340
342
344
345
350
354
357
361
364
364
369
372
375
379
382
385
387
390
390
390
387
381
376
368
357
349
342
337
331
325
324
322
321
320
319
318
319
321
323
322
322
322
324
327
328
329
332
334
333
333
333
333
335
337
337
336
336
338
338
337
336
336
337
336
335
335
336
335
335
335
335
335
335
334
334
333
335
337
339
339
339
339
340
344
348
351
352
355
361
363
363
359
356
351
345
344
343
342
341
341
341
338
334
331
323
315
332
387
460
528
542
477
399
353
332
324
327
338
347
347
346
344
347
350
354
354
356
358
358
360
362
364
365
367
370
371
372
376
375
375
379
385
388
391
394
397
398
402
406
408
410
409
407
406
401
393
385
376
367
359
350
348
345
340
340
340
338
336
336
338
337
334
333
334
333
334
339
341
340
340
338
339
342
341
341
342
342
339
339
342
345
345
343
343
342
341
339
337
338
341
343
342
341
342
342
342
343
343
342
346
350
349
353
357
362
363
361
358
355
346
340
336
337
336
334
337
337
335
334
325
313
311
332
383
451
504
500
429
363
328
308
304
315
327
333
335
332
331
331
334
337
338
340
341
341
341
342
343
346
348
348
350
357
359
359
362
362
364
370
377
378
380
381
385
387
387
389
388
385
380
372
363
356
348
340
336
330
325
321
321
319
317
317
318
319
319
319
317
315
316
318
317
318
320
322
318
316
319
323
326
319
318
320
323
326
326
318
316
318
318
319
322
322
326
327
321
325
319
314
315
318
321
328
329
331
331
334
338
339
339
339
335
326
320
318
315
317
320
323
322
317
312
300
285
290
328
391
459
500
477
403
349
317
303
301
303
311
317
321
319
318
320
323
323
323
323
324
328
335
336
338
339
340
340
343
349
353
356
360
365
370
370
377
382
385
386
389
391
391
392
394
389
348
254
154
80
37
1
0
0
0
0
0
0
0
0
0
0
0
0
0
0
0
0
0
0
0
0
0
0
0
0
0
0
0
0
0
0
0
0
0
0
0
0
0
0
0
0
0
0
0
0
0
0
0
0
0
0
0
0
0
0
0
0
0
0
0
0
0
0
0
0
0
0
0
0
0
0
0
0
0
0
0
0
0
0
0
0
0
0
0
0
0
0
0
0
0
0
0
0
0
0
0
0
0
0
0
0
0
0
0
0
0
0
0
0
0
0
0
0
0
0
0
0
0
0
0
0
0
0
0
0
0
0
0
0
0
0
0
0
0
0
0
0
0
0
0
0
0
0
0
0
0
0
0
0
0
0
0
0
0
0
0
0
0
0
0
0
0
0
0
0
0
0
0
0
0
0
0
0
0
0
0
0
0
0
0
0
0
0
0
0
0
0
0
0
0
0
0
16
28
17
3
0
0
1
5
8
10
13
17
26
36
46
55
66
77
90
105
121
133
148
162
180
199
216
238
262
287
310
336
362
385
410
439
481
580
696
706
706
708
708
708
708
708
708
709
709
709
708
709
709
709
708
709
709
709
709
708
709
709
709
709
709
709
709
709
709
709
709
709
709
708
710
709
709
709
709
709
710
709
708
709
709
709
709
709
709
710
709
709
709
709
710
709
710

709
709
709
709
709
710
709
709
709
710
710
709
709
709
709
709
709
709
709
709
709
710
709
709
709
709
709
709
710
709
710
709
709
709
709
709
709
709
709
709
709
709
709
709
709
708
707
700
555
407
345
325
305
279
247
224
208
194
181
168
157
145
138
134
129
123
112
98
86
78
71
65
62
60
57
53
49
48
47
44
38
28
15
8
15
48
98
152
208
218
154
86
51
30
16
15
22
29
35
39
40
39
40
39
41
45
47
48
48
49
51
54
56
58
62
63
64
68
72
78
84
87
90
89
92
96
98
99
100
99
100
104
107
111
114
115
115
114
113
110
102
96
91
86
80
73
68
66
64
62
58
56
57
60
61
63
65
67
68
69
71
74
78
78
78
79
81
83
85
86
87
91
92
92
94
97
101
103
105
106
108
110
111
114
115
114
117
122
124
126
129
133
135
135
136
144
150
150
146
144
149
153
153
153
152
143
133
130
132
133
134
135
137
134
131
126
116
106
121
171
239
298
316
269
203
160
137
129
135
145
152
154
153
152
154
153
154
154
156
160
161
160
161
166
170
173
177
180
183
186
193
197
202
206
210
215
221
228
233
239
243
245
249
252
252
251
246
237
228
224
221
216
213
210
207
207
207
209
209
210
213
217
218
218
221
224
226
228
230
232
233
234
237
238
241
243
245
247
248
248
250
252
254
255
253
255
257
259
260
262
262
263
266
270
274
274
274
274
276
278
279
283
285
285
287
290
293
300
306
308
311
316
321
324
325
325
319
313
312
313
316
320
320
322
324
323
315
303
305
339
403
476
522
508
437
381
350
337
337
340
347
353
353
354
358
362
363
362
365
370
373
373
375
380
384
385
386
389
392
395
397
399
401
402
404
407
410
415
417
420
423
424
426
426
426
425
421
415
407
397
389
385
378
373
371
368
365
364
365
363
361
364
364
364
362
361
363
364
366
366
366
365
367
366
365
367
367
365
364
363
363
361
359
361
363
362
364
364
364
362
360
360
360
361
362
363
362
361
363
362
361
361
362
362
360
359
360
361
363
365
367
369
370
371
373
378
381
380
379
376
369
360
356
356
355
355
355
354
352
348
339
329
325
346
401
473
532
537
472
405
366
343
333
335
342
343
343
343
341
342
345
345
346
346
349
352
351
353
354
356
358
358
361
363
364
367
371
373
376
377
378
381
384
387
389
390
390
392
392
386
386
384
376
367
355
345
339
331
327
324
321
318
318
320
321
318
316
318
320
320
320
320
321
321
321
323
323
321
321
323
323
322
321
320
321
323
324
323
324
322
320
321
321
321
321
322
323
323
322
322
322
322
321
321
321
323
323
323
323
325
324
325
325
327
327
328
330
330
331
331
331
332
330
329
330
335
338
338
338
342
348
354
352
349
347
344
338
330
326
326
328
329
329
326
324
318
306
295
309
365
437
504
532
485
406
358
331
316
313
320
327
328
326
324
324
325
326
325
328
331
332
332
333
336
338
342
342
343
345
348
352
354
356
360
363
367
369
372
378
383
388
390
390
389
390
390
386
381
372
363
355
345
338
335
330
328
327
322
323
323
322
324
322
321
322
323
325
326
326
327
330
330
330
329
329
331
331
329
330
332
334
333
334
335
334
336
332
333
333
336
336
336
335
336
336
336
336
336
335
336
336
337
336
336
337
336
338
337
337
339
341
347
348
346
350
355
358
360
358
354
350
342
336
334
335
334
335
334
333
333
330
320
306
308
341
405
476
523
503
424
366
333
312
310
318
329
334
335
335
335
335
335
337
340
342
344
345
344
345
348
349
351
353
353
356
359
360
363
367
370
374
377
380
382
386
387
388
390
391
390
387
381
373
364
355
348
340
331
325
323
323
321
318
316
317
319
319
319
322
322
320
322
322
324
324
324
325
327
325
325
326
325
325
327
327
328
331
330
328
330
330
329
329
331
329
328
331
331
331
331
332
330
330
329
328
332
331
331
330
331
336
340
340
337
343
349
350
353
352
347
343
337
332
328
327
326
328
328
329
326
319
309
301
306
343
403
467
504
466
390
345
320
305
307
316
324
328
328
327
327
327
328
331
333
337
336
335
338
342
343
343
345
346
349
351
353
357
358
361
363
365
369
372
372
374
378
382
383
382
382
378
373
367
358
350
342
336
331
325
321
318
315
315
314
315
317
317
316
316
315
315
314
317
318
317
318
319
320
320
321
322
323
323
324
325
325
325
325
323
324
324
325
324
324
325
325
323
324
327
328
327
325
327
328
325
324
326
327
326
329
329
329
330
334
336
337
340
343
348
350
349
347
344
340
333
328
328
328
328
329
328
326
325
320
309
304
324
376
442
498
507
446
378
340
321
314
317
327
333
334
332
333
333
333
333
336
338
340
341
342
341
344
346
347
350
352
355
357
359
362
364
366
367
369
372
378
381
383
385
386
388
388
385
383
379
370
363
356
348
340
334
328
324
325
324
322
321
319
320
321
323
324
324
323
326
327
328
327
328
329
331
331
331
330
331
330
331
330
331
333
335
334
332
332
333
332
332
332
334
334
334
335
334
333
335
332
331
333
335
335
335
336
336
335
335
336
336
337
338
339
338
335
336
339
342
341
341
342
345
347
347
351
355
357
359
357
356
354
351
342
336
331
331
331
329
328
329
327
319
308
302
325
382
453
512
519
455
387
348
327
317
319
326
333
333
332
332
332
330
332
335
337
340
339
340
342
343
344
347
348
349
352
354
356
359
360
363
365
367
372
377
381
384
387
388
390
390
388
386
382
375
367
359
352
344
337
331
327
325
324
321
322
323
323
324
323
324
324
324
322
323
325
325
326
327
328
327
328
328
327
328
328
329
330
330
330
328
329
333
333
332
330
331
330
330
332
334
334
333
333
331
329
332
334
334
333
332
332
334
333
333
334
333
332
332
333
333
333
335
337
337
339
342
346
347
351
353
354
354
352
350
345
337
333
330
331
332
332
332
330
326
317
306
302
326
387
459
519
526
459
387
346
325
318
319
326
329
328
327
328
327
328
328
330
332
336
338
338
342
341
342
342
345
347
348
351
355
358
359
361
365
367
372
377
382
384
384
386
389
389
389
386
380
373
364
356
349
340
334
330
328
324
321
320
321
320
319
319
319
318
320
320
320
321
322
323
324
324
324
324
324
325
325
325
324
326
327
326
326
326
326
324
325
325
326
326
328
329
328
328
327
329
330
329
328
329
329
330
328
327
328
327
327
328
330
330
330
332
333
332
331
333
335
334
334
338
342
344
350
351
351
354
357
357
355
354
349
343
335
334
335
336
336
335
334
332
327
315
306
319
371
443
514
540
484
402
353
327
315
318
327
335
336
334
333
333
334
336
336
336
338
342
345
345
345
347
351
352
353
354
356
360
364
369
374
377
378
381
386
389
391
396
401
402
402
403
400
395
387
378
366
356
349
343
338
332
329
326
324
322
323
327
326
324
326
326
327
327
329
328
330
332
332
332
333
334
334
334
334
334
334
334
335
334
335
336
338
338
337
336
337
337
336
336
338
340
341
341
342
341
341
340
338
341
343
343
343
344
345
346
349
352
354
358
364
366
368
369
368
367
365
357
348
344
345
347
349
349
349
347
345
338
328
322
341
392
458
518
529
461
393
356
334
327
334
346
355
358
356
354
354
357
358
360
362
364
366
368
371
374
376
378
380
381
382
388
390
392
395
397
399
402
408
412
412
413
414
419
420
421
419
416
409
403
394
383
373
370
365
358
354
354
353
352
350
351
351
350
349
352
351
351
350
350
351
354
355
357
355
355
357
358
359
360
361
364
367
367
365
367
368
369
368
370
374
389
451
535
605
652
687
703
704
706
706
707
708
708
708
709
709
708
709
708
709
709
709
709
709
709
709
708
709
709
709
709
709
709
709
709
709
709
709
710
709
709
709
709
709
709
710
709
709
709
709
709
709
709
708
709
708
709
708
708
708
708
708
707
708
707
707
707
707
707
706
706
706
706
705
704
704
703
702
700
698
695
687
612
472
358
284
229
179
134
93
65
43
24
6
0
0
0
0
0
0
0
0
0
0
0
0
0
0
0
0
0
0
0
0
0
0
0
0
0
0
0
0
0
0
0
0
0
0
0
0
0
0
0
0
0
0
0
0
0
0
0
0
0
0
0
0
0
0
0
0
0
0
0
0
0
0
0
0
0
0
0
0
0
0
0
0
0
0
0
0
0
0
0
0
0
0
0
0
0
0
0
0
0
0
0
0
0
0
0
0
0
0
0
0
0
0
0
0
0
0
0
0
4
38
105
185
227
199
124
72
49
37
33
37
44
50
54
56
55
50
49
49
50
39
0
0
0
0
0
0
0
0
0
0
0
0
0
0
0
0
0
0
0
0
0
0
0
0
0
0
0
0
0
0
0
0
0
0
0
0
0
0
0
0
0
0
0
0
0
0
0
0
0
0
0
0
0
0
0
0
0
0
0
0
0
0
0
0
0
0
0
0
0
0
0
0
0
0
0
0
0
0
0
0
0
0
0
0
0
0
0
0
0
0
0
0
0
0
0
0
0
0
0
0
0
0
0
0
0
0
0
0
0
0
0
0
0
0
0
0
0
0
0
0
0
0
0
0
0
0
0
0
0
0
0
0
0
0
0
0
0
0
0
0
0
0
0
5
33
71
96
107
122
137
153
170
186
203
218
234
250
264
281
296
311
324
340
357
374
390
406
423
439
452
466
477
487
494
500
505
506
504
504
505
507
509
514
524
536
548
561
572
584
594
600
588
572
570
574
584
593
598
603
609
618
626
632
640
648
655
661
666
669
675
683
689
694
697
699
702
702
702
703
704
705
705
705
706
706
706
706
707
707
707
707
707
708
708
708
707
707
707
707
707
707
707
707
707
707
707
707
707
707
707
708
708
709
709
709
709
709
709
709
709
708
709
709
709
708
709
709
708
709
708
708
709
709
709
709
709
708
709
709
709
709
709
709
709
708
709
709
709
709
709
709
709
709
709
709
709
709
708
709
708
708
708
708
708
707
708
707
707
707
707
706
706
706
706
705
705
705
704
704
703
702
700
697
693
689
685
682
677
673
670
669
666
664
660
658
658
655
654
650
649
647
647
648
643
641
644
647
646
642
636
633
624
607
595
593
592
592
591
587
584
580
574
560
545
541
572
639
703
706
705
696
630
562
527
523
531
541
544
540
535
531
530
531
530
527
525
526
527
527
525
526
527
528
527
527
527
531
532
533
535
538
540
540
540
540
540
546
547
546
543
541
536
527
517
507
493
478
469
465
459
456
449
447
446
445
443
443
443
443
433
407
386
375
370
367
365
363
361
360
360
362
363
363
362
362
365
368
369
370
368
366
369
374
379
385
388
388
389
394
400
404
405
405
404
398
395
394
396
399
402
404
407
409
408
402
394
387
404
455
528
592
612
557
485
445
419
410
419
434
444
447
447
446
447
449
449
451
452
453
454
454
455
455
456
458
461
462
463
464
466
468
468
470
472
477
480
482
482
483
485
487
489
487
482
475
467
457
447
438
429
422
416
413
412
414
412
411
408
408
409
409
409
408
405
407
407
406
405
406
407
407
405
404
401
402
402
401
400
400
399
398
396
395
396
396
395
394
396
398
397
397
395
398
400
402
401
397
390
380
373
370
370
369
369
367
366
364
362
354
340
335
359
417
489
546
546
477
410
372
350
342
342
346
347
347
346
344
342
342
344
344
343
344
344
344
346
346
347
348
348
348
349
351
354
356
358
360
363
365
368
369
372
375
377
377
376
374
370
366
360
350
340
332
325
318
313
309
307
304
303
304
302
300
299
300
300
299
298
299
299
299
297
297
299
299
301
301
300
300
300
299
299
299
299
298
297
297
298
298
298
299
298
299
299
298
298
298
300
301
302
301
300
304
307
307
310
315
321
324
324
322
320
314
305
300
300
298
298
298
298
298
298
293
283
274
282
329
402
478
514
476
397
346
319
305
300
302
305
305
303
302
303
304
304
304
304
306
309
310
311
313
315
317
318
321
323
324
328
330
333
336
339
344
349
352
353
357
361
364
365
367
368
365
359
352
345
337
327
318
312
308
304
301
300
299
298
298
299
299
300
301
300
301
301
301
302
302
301
301
303
304
305
304
304
305
307
308
307
307
307
308
308
309
310
309
309
308
309
310
310
309
309
310
311
313
313
311
310
310
312
312
313
313
313
313
313
313
315
315
315
315
318
318
319
319
319
321
319
320
320
320
320
321
321
321
321
322
322
322
323
322
323
323
323
323
324
324
325
326
326
326
327
327
328
330
330
331
334
338
340
342
345
348
351
351
349
348
347
342
334
327
325
326
328
329
330
328
324
317
305
301
332
397
475
538
536
458
385
346
325
317
318
326
328
326
326
325
327
328
329
331
332
334
336
338
340
343
343
346
348
350
352
352
355
357
360
364
369
373
375
378
380
383
387
390
394
394
392
391
389
384
376
369
362
354
344
339
335
331
328
324
322
322
322
319
320
320
320
322
324
326
326
327
327
326
327
328
328
329
330
330
330
329
330
329
330
331
329
331
332
332
331
332
332
331
331
332
333
333
334
331
330
331
333
334
333
332
333
334
333
331
331
332
332
332
331
331
331
330
330
330
331
332
332
331
330
332
334
336
337
340
344
349
350
351
352
351
351
350
348
345
341
336
330
327
328
327
326
325
325
322
312
301
306
342
407
480
521
494
412
356
324
306
307
317
328
332
331
327
328
329
330
331
332
334
335
337
339
339
341
343
345
347
350
354
357
359
361
362
364
367
371
375
378
381
383
386
386
387
387
385
380
373
365
357
350
342
334
328
323
318
317
316
314
313
314
314
314
314
315
316
316
318
319
319
319
320
322
323
324
325
324
324
324
325
325
324
324
326
328
327
327
327
328
326
327
326
326
327
328
328
327
328
329
329
330
329
330
331
331
331
332
331
329
329
329
329
329
330
329
328
328
328
327
329
331
333
335
337
342
346
348
348
349
349
348
348
348
345
342
337
331
328
328
330
331
330
329
325
317
307
310
349
417
490
534
508
427
368
337
320
317
320
328
330
330
329
329
331
331
332
334
335
338
338
339
340
342
345
347
349
351
353
356
358
360
363
366
368
370
374
377
380
383
386
387
388
389
387
384
377
370
361
353
343
334
329
323
320
317
315
316
314
314
314
314
315
315
316
316
316
319
319
320
322
321
323
325
324
323
323
323
324
322
322
323
324
325
325
327
327
326
326
328
327
327
328
327
328
330
328
327
327
328
329
329
328
329
330
332
331
331
330
330
331
332
332
332
332
332
332
333
332
333
333
332
333
334
333
334
334
335
336
336
338
340
344
345
348
352
355
356
357
357
356
356
355
352
349
342
336
334
333
332
331
331
329
322
311
304
318
368
441
514
548
504
418
366
338
324
321
327
334
335
332
331
332
331
334
336
337
337
339
340
340
344
345
346
348
349
350
352
355
357
359
363
366
368
373
377
381
384
386
390
392
392
393
392
388
382
375
365
356
348
340
333
327
325
323
321
318
316
317
317
318
319
318
320
323
323
323
322
323
324
325
326
326
327
327
328
328
329
331
332
332
332
332
331
330
330
331
333
332
332
330
329
331
330
330
331
332
332
332
331
332
333
332
332
333
334
335
335
334
334
334
335
334
333
335
334
333
334
333
333
334
336
336
335
336
337
336
335
336
336
336
335
338
339
342
344
348
353
356
356
356
355
356
354
354
353
348
344
337
333
333
333
332
331
331
325
315
305
314
362
434
511
552
517
427
367
336
319
315
321
330
333
331
330
330
331
331
333
335
337
338
338
338
340
343
344
346
348
351
352
354
357
359
363
368
372
376
380
383
385
389
393
395
396
396
395
392
386
379
370
361
352
343
335
330
327
325
321
320
318
317
318
319
318
318
318
318
320
320
321
321
320
319
320
321
322
323
324
324
324
326
327
328
327
326
326
327
326
328
328
326
327
327
327
324
324
325
326
327
327
327
325
326
328
327
327
328
329
330
329
329
329
328
328
330
330
331
332
332
331
332
331
332
332
332
333
333
333
335
337
341
344
347
351
356
357
357
356
357
357
355
354
353
350
344
338
334
334
334
334
334
333
328
317
306
313
355
427
505
550
522
431
368
336
318
313
319
327
331
329
328
328
329
329
330
332
334
335
335
337
339
343
344
345
348
350
352
355
359
361
364
367
371
375
380
382
386
389
391
393
394
395
393
390
386
377
368
357
347
339
332
325
320
317
314
315
313
313
312
312
313
314
314
313
315
316
317
316
316
315
316
319
321
321
320
321
323
324
323
322
321
322
324
323
321
321
323
322
322
322
322
322
321
321
320
320
321
322
322
322
322
323
322
323
326
325
323
323
324
327
327
327
328
328
328
328
329
329
328
329
329
330
330
332
335
338
340
343
348
352
355
355
354
356
355
352
351
348
343
337
330
328
329
331
331
331
331
325
314
304
312
357
428
502
546
514
424
363
332
315
313
321
330
334
334
332
332
332
334
334
334
337
339
342
344
345
347
349
351
353
356
360
362
363
366
368
372
377
381
385
388
392
394
396
398
400
401
400
395
388
378
369
358
349
343
336
331
327
325
323
320
321
320
321
322
323
324
323
323
324
324
324
325
325
326
326
328
329
329
329
329
330
332
333
332
333
335
335
335
335
333
332
334
335
334
332
333
332
332
332
332
333
333
333
333
332
333
333
333
333
333
333
333
335
334
334
333
332
332
335
338
340
344
349
353
354
352
351
351
351
350
348
344
339
333
329
329
331
330
329
328
325
318
308
301
317
369
439
506
528
469
390
343
316
305
309
320
330
332
330
329
331
331
333
334
335
335
337
338
341
343
345
347
349
351
352
355
358
362
366
369
373
376
379
383
385
388
392
396
397
398
397
394
389
383
373
362
352
344
337
331
325
322
319
319
317
317
317
319
319
319
319
320
320
321
320
320
321
321
320
321
322
324
324
324
323
325
326
326
325
325
325
326
325
324
325
325
326
326
328
327
327
326
326
326
325
325
326
325
325
325
324
326
325
325
325
325
328
330
331
331
330
331
332
333
333
333
334
336
337
340
341
345
351
354
353
352
353
353
353
352
352
347
341
336
333
333
332
332
333
332
326
316
305
315
362
434
507
544
504
416
359
329
314
312
317
327
331
331
327
326
328
329
331
332
334
336
336
337
338
340
344
345
347
350
352
355
358
362
365
369
373
377
379
383
387
391
393
395
397
397
396
391
385
377
366
356
347
338
333
326
322
320
317
317
316
316
315
316
317
318
318
319
318
318
319
321
322
322
324
325
325
324
326
326
327
328
328
328
328
329
331
332
332
332
331
331
331
330
328
328
329
329
329
328
328
327
327
329
330
331
329
328
328
330
332
331
330
330
329
330
330
330
330
330
330
330
331
332
332
333
336
338
339
340
343
347
350
351
352
353
353
351
350
350
347
341
333
328
327
329
330
329
328
325
316
306
301
328
390
468
534
542
467
387
344
320
311
313
321
328
328
327
328
328
329
331
330
332
334
334
334
338
341
343
343
345
349
352
354
355
360
364
365
369
374
377
383
386
389
392
397
400
400
398
397
392
383
373
364
354
345
336
328
323
319
316
315
314
315
314
314
314
314
313
314
314
316
317
317
317
316
317
318
318
318
319
320
321
322
322
323
321
321
323
324
323
323
324
323
323
324
325
325
323
323
322
322
322
325
325
324
326
327
328
329
328
329
329
329
329
330
330
330
331
333
335
336
339
343
348
351
352
351
351
350
350
349
350
346
341
334
329
330
331
330
329
329
327
320
307
302
321
373
446
512
530
461
382
337
311
301
306
321
331
333
331
327
329
331
332
333
333
335
337
339
341
342
344
346
347
348
351
353
356
359
364
368
373
375
376
381
385
388
390
392
395
397
395
392
386
378
370
358
345
336
330
326
321
315
314
313
313
312
314
314
314
315
314
315
317
318
318
320
320
320
319
321
322
323
325
325
324
326
329
328
328
331
332
331
329
330
330
328
329
331
333
331
331
329
329
329
327
326
325
326
326
328
330
330
331
331
332
334
336
338
341
343
347
352
354
355
354
352
352
353
351
348
343
335
331
332
333
331
332
330
328
322
315
309
325
375
441
497
510
448
377
336
313
305
311
322
332
335
335
335
336
337
337
338
339
340
343
344
344
346
348
350
352
354
355
358
361
363
364
368
372
375
378
380
383
386
389
391
394
395
394
392
386
376
367
358
350
343
337
332
326
323
322
321
319
319
318
318
318
319
320
320
321
322
322
322
321
322
323
323
324
324
324
325
326
326
325
326
327
329
330
333
333
328
328
325
323
324
324
326
325
322
320
322
325
327
326
326
327
326
327
327
326
327
328
329
332
331
332
335
339
343
344
345
348
347
344
344
343
344
338
330
324
325
329
325
324
323
320
314
304
303
331
390
459
514
513
445
378
340
320
314
318
326
330
330
328
327
326
328
330
335
331
330
332
332
338
335
332
331
330
338
354
360
358
342
327
335
347
360
373
382
369
351
357
367
383
389
370
364
359
356
354
351
345
333
318
310
313
318
321
319
313
309
307
308
322
334
334
330
328
321
329
335
332
328
346
374
398
433
468
494
519
537
542
546
545
546
550
559
558
556
543
540
544
534
533
545
545
539
537
537
533
534
529
521
512
521
519
512
501
500
508
513
514
512
509
499
492
500
517
511
495
489
491
494
488
475
467
471
466
462
457
453
448
442
427
421
443
495
575
643
652
587
501
450
420
398
408
405
400
423
429
417
426
429
432
428
425
422
432
433
426
424
424
424
425
426
424
417
417
433
443
433
436
451
442
438
449
452
451
448
451
441
445
436
427
423
409
397
384
374
388
404
396
368
359
365
368
361
346
345
345
349
369
368
357
354
355
351
356
367
359
347
352
358
356
362
355
349
351
362
374
368
367
356
358
360
369
370
361
363
385
402
423
425
415
409
430
438
424
424
432
453
449
435
430
428
449
460
449
434
442
461
462
453
452
449
443
456
452
435
436
437
414
415
419
409
418
432
422
397
373
392
429
485
572
645
612
506
428
405
385
388
383
412
406
410
412
392
400
423
425
402
385
378
389
400
402
395
403
410
385
375
407
421
403
413
423
404
374
394
434
451
428
407
399
419
443
424
431
413
406
412
415
387
360
354
354
327
300
342
349
350
327
317
334
337
321
308
305
310
330
312
323
345
338
311
307
302
325
335
322
319
328
326
307
296
312
324
328
310
257
227
218
207
189
211
236
235
227
202
189
183
184
203
212
198
199
210
203
187
173
184
212
239
233
219
216
219
230
236
222
205
214
207
209
219
214
210
207
202
191
183
199
188
202
225
223
261
379
460
424
328
256
239
219
212
198
210
221
215
218
237
251
238
217
218
233
241
252
260
257
242
224
239
261
275
272
273
275
286
285
283
296
292
314
276
308
341
339
330
338
328
302
313
310
314
299
280
260
251
262
272
260
260
247
234
246
249
243
231
249
269
245
233
219
217
253
254
246
259
267
251
242
224
245
248
270
276
251
218
231
220
256
246
251
292
316
276
211
214
295
322
304
268
258
283
284
256
258
286
317
318
273
272
280
292
300
274
266
281
286
276
265
269
282
285
272
242
244
241
261
312
369
421
502
483
408
337
319
305
287
265
293
296
301
282
296
302
270
250
301
335
322
286
298
305
309
336
353
322
286
301
359
352
346
349
325
301
347
364
378
392
346
348
402
389
333
388
408
382
375
368
344
312
285
304
335
324
304
312
281
294
304
308
296
323
310
287
308
334
326
312
299
302
308
319
337
336
322
315
330
314
321
320
318
325
297
323
365
362
331
316
304
312
305
309
285
290
342
379
340
312
350
352
330
337
309
315
330
349
363
295
316
394
357
308
320
360
358
338
317
311
303
311
319
307
297
327
393
473
506
483
424
404
363
319
293
314
315
281
296
301
290
310
339
298
281
256
305
347
332
328
320
303
292
272
282
319
339
307
342
377
337
363
386
359
306
353
372
371
320
330
327
315
318
377
381
360
330
292
303
305
281
270
259
258
282
294
268
212
226
272
291
246
209
281
334
263
200
265
291
284
267
291
322
306
260
259
263
271
274
231
238
253
277
275
264
260
250
259
226
227
281
300
293
287
272
262
268
265
279
307
297
288
283
281
279
285
331
340
287
274
253
240
231
302
340
314
279
236
144
164
318
336
263
287
295
351
412
354
297
192
159
137
125
146
142
144
133
99
81
121
160
159
115
84
103
123
126
150
164
118
131
140
143
154
169
173
207
270
349
387
390
402
407
407
420
433
445
467
449
405
370
404
488
480
445
436
396
363
376
441
399
354
351
370
384
373
381
375
362
367
372
406
405
399
373
333
360
368
398
439
424
369
350
402
413
400
402
400
390
393
385
396
412
382
378
356
398
394
394
341
345
394
413
388
373
401
400
324
369
459
441
356
311
401
445
436
437
384
380
384
354
362
398
407
386
363
362
328
328
371
374
384
495
607
596
577
538
437
364
359
359
368
377
376
368
377
378
371
350
334
339
376
373
353
338
349
335
350
364
365
361
370
360
366
380
357
343
378
373
386
372
383
373
401
416
358
283
273
335
440
448
344
297
255
301
303
313
307
274
251
259
269
244
236
211
225
245
243
219
218
266
254
237
219
193
222
237
233
231
231
242
222
222
239
210
229
244
234
225
210
229
211
233
266
240
252
261
249
271
237
245
254
267
270
275
251
220
228
269
282
291
283
257
211
239
272
248
251
255
224
212
247
223
205
239
215
213
209
169
231
349
424
426
432
396
354
271
243
289
240
232
261
263
245
240
238
184
258
273
265
261
255
243
222
232
206
192
257
305
285
255
230
181
243
317
329
280
222
286
343
310
296
320
334
336
332
324
278
279
292
302
293
236
287
255
238
234
245
231
215
241
266
195
264
387
344
250
208
257
349
336
284
272
248
263
294
284
327
317
272
238
185
293
388
358
307
263
268
258
297
328
334
293
280
278
288
299
284
283
291
301
297
316
320
309
311
329
329
318
322
318
311
332
339
329
316
295
278
310
320
309
326
308
263
272
274
270
334
450
548
578
515
394
349
346
314
302
304
313
290
295
312
321
321
304
290
277
268
303
364
343
329
294
286
327
296
307
373
352
332
328
267
275
370
378
295
275
335
372
363
346
363
341
306
306
349
374
327
284
244
260
315
313
257
265
275
272
275
268
279
286
264
239
294
312
284
272
269
295
276
322
310
292
304
293
305
315
291
271
231
290
363
334
251
2833
355
324
315
323
315
271
305
328
321
339
319
302
316
312
327
325
310
288
271
331
337
374
382
324
331
355
320
288
300
302
291
294
351
351
322
254
288
303
304
323
308
344
420
492
519
422
318
311
325
293
274
267
265
260
293
301
247
223
252
280
291
256
274
276
274
285
277
253
268
273
273
284
276
277
259
228
215
227
228
210
172
234
211
142
206
247
223
187
180
179
122
111
150
144
117
124
124
124
101
54
0
2
72
130
147
145
117
65
70
35
70
120
142
129
111
138
117
93
92
108
142
137
109
77
101
139
149
142
144
126
136
140
147
132
152
169
150
145
182
175
171
188
174
191
206
190
166
208
220
226
159
134
219
273
182
189
270
284
240
159
208
211
240
268
250
240
216
180
212
197
175
209
179
213
305
437
489
432
375
366
314
234
199
265
321
326
304
280
249
223
229
270
332
323
233
226
282
264
316
352
357
355
344
334
318
272
321
356
371
344
352
365
376
373
361
338
304
335
359
340
360
385
354
317
314
267
250
294
295
272
263
253
236
250
264
252
245
277
249
223
279
316
309
255
233
272
283
225
252
307
286
258
266
224
261
274
281
304
306
306
293
228
255
312
311
279
273
274
293
325
309
274
237
295
328
311
303
309
314
318
334
306
294
331
333
313
289
315
296
292
327
345
322
272
294
327
319
298
283
321
379
432
492
510
465
391
310
252
316
328
302
342
386
355
333
330
339
307
313
346
362
356
344
337
357
380
373
369
373
372
366
418
411
388
370
383
405
395
372
401
427
430
415
427
408
405
403
390
367
362
346
374
376
350
323
333
330
321
358
358
351
341
362
362
351
361
353
331
329
332
349
323
325
348
357
309
320
364
377
391
401
388
370
357
333
344
376
378
373
344
349
363
379
335
347
381
371
338
373
377
372
364
351
388
435
441
381
363
405
428
398
384
374
369
368
392
368
342
336
352
386
394
387
347
336
365
405
471
553
583
509
423
404
403
367
361
377
374
379
400
420
388
426
453
424
425
409
394
422
445
399
363
440
456
419
452
473
462
444
430
428
456
462
454
459
467
444
430
454
493
473
418
423
499
484
444
428
437
430
417
400
381
386
405
399
379
388
391
347
361
387
385
402
393
380
376
377
385
380
387
391
375
367
357
364
398
385
387
393
391
366
373
392
405
381
377
390
379
344
349
308
340
387
356
398
364
373
412
436
429
406
385
394
410
417
393
365
353
371
378
384
380
371
394
353
354
384
408
380
346
323
344
397
468
537
575
530
460
390
351
350
366
352
353
354
372
372
357
348
344
339
358
373
377
364
350
350
355
369
369
361
370
393
397
364
345
362
401
384
388
413
375
369
409
421
401
390
415
425
380
364
361
362
366
338
330
338
325
332
344
334
320
325
341
358
341
321
311
295
333
345
328
314
297
290
321
335
338
364
365
317
284
304
361
375
376
343
276
262
332
373
360
356
343
316
316
340
331
322
321
343
346
341
340
338
332
347
358
338
324
337
333
317
298
296
303
313
301
294
291
332
307
312
310
275
278
317
383
433
463
495
476
394
355
330
317
290
285
278
306
311
284
275
312
341
340
315
275
289
331
351
352
319
321
317
307
324
351
360
365
361
350
359
349
315
367
373
365
384
399
393
375
389
392
369
338
351
358
340
303
280
330
334
318
283
278
302
319
307
271
288
331
325
312
286
285
309
325
315
300
287
279
308
328
316
309
321
323
305
296
307
294
288
301
328
284
283
339
329
316
315
300
276
304
312
320
314
311
305
288
278
316
335
329
316
314
306
300
317
312
311
311
315
309
299
245
243
315
331
310
304
295
294
287
273
250
244
268
371
465
500
462
394
344
315
297
289
269
269
284
296
300
304
277
259
268
275
284
297
304
301
296
296
292
301
313
309
295
298
314
316
327
337
328
344
336
310
344
371
377
368
360
349
353
352
333
353
353
320
318
309
312
292
267
248
287
299
293
313
303
277
262
236
268
328
319
298
282
250
272
331
337
304
244
270
331
321
290
256
283
307
289
298
298
271
274
321
316
292
283
295
310
301
297
286
285
290
303
316
298
286
283
290
295
284
297
297
305
333
338
322
306
319
315
303
302
294
291
271
272
284
297
268
269
281
272
245
281
322
392
469
520
498
397
306
271
286
294
281
262
246
301
324
280
248
295
287
307
304
281
262
276
297
315
306
285
274
281
289
290
301
301
301
332
328
329
348
322
319
340
348
327
335
346
346
357
348
322
307
312
297
289
288
278
274
279
261
253
283
308
303
271
262
274
275
293
300
270
276
300
292
282
292
287
250
258
327
319
302
294
291
281
280
271
280
256
231
250
278
256
227
227
208
247
273
265
257
234
216
228
264
258
269
267
228
252
276
280
272
272
246
242
280
280
275
